VARIABLES="Y/c","convection","viscous",pressure gradient",Reynolds stress"
0.00000000e+00 0.00000000e+00 3.57349693e+00 2.31235709e-08 -3.85359226e+00
1.17796881e-06 -2.23878422e-03 3.57363774e+00 7.30516676e-08 -3.59868758e+00
2.40051416e-06 -4.80180716e-03 3.57361426e+00 8.45567579e-08 -3.52970776e+00
3.66921707e-06 -1.14769893e-02 3.57356905e+00 1.25707150e-08 -3.60535918e+00
4.98570586e-06 -1.96620999e-02 3.57353193e+00 -7.92908570e-08 -3.52050110e+00
6.35165685e-06 -3.20761852e-02 3.57347266e+00 -1.70508959e-07 -3.56932850e+00
7.76879495e-06 -4.68808952e-02 3.57341944e+00 -3.51479289e-07 -3.51245881e+00
9.23889418e-06 -6.62817438e-02 3.57334089e+00 -5.29338343e-07 -3.51792979e+00
1.07637781e-05 -8.89989665e-02 3.57327386e+00 -7.74011445e-07 -3.48240039e+00
1.23453202e-05 -1.16746397e-01 3.57316775e+00 -1.04193502e-06 -3.45970128e+00
1.39854440e-05 -1.48838798e-01 3.57308518e+00 -1.38008851e-06 -3.42625886e+00
1.56861232e-05 -1.86538265e-01 3.57294549e+00 -1.74678737e-06 -3.38791597e+00
1.74493820e-05 -2.29643725e-01 3.57284420e+00 -2.18768212e-06 -3.34559642e+00
1.92772943e-05 -2.79083501e-01 3.57266297e+00 -2.67380181e-06 -3.29510024e+00
2.11719838e-05 -3.35044191e-01 3.57253911e+00 -3.23318267e-06 -3.23956487e+00
2.31356234e-05 -3.98178573e-01 3.57230753e+00 -3.85014580e-06 -3.17582508e+00
2.51704345e-05 -4.68979202e-01 3.57215485e+00 -4.54512270e-06 -3.10501067e+00
2.72786859e-05 -5.47885739e-01 3.57186346e+00 -5.30568856e-06 -3.02572008e+00
2.94626928e-05 -6.35593541e-01 3.57167302e+00 -6.14689297e-06 -2.93781911e+00
3.17248151e-05 -7.32386696e-01 3.57131155e+00 -7.06097600e-06 -2.84064870e+00
3.40674560e-05 -8.39073278e-01 3.57107086e+00 -8.05601001e-06 -2.73371054e+00
3.64930598e-05 -9.55826731e-01 3.57062864e+00 -9.12777168e-06 -2.61651577e+00
3.90041094e-05 -1.08349666e+00 3.57032060e+00 -1.02795447e-05 -2.48854803e+00
4.16031235e-05 -1.22219277e+00 3.56978694e+00 -1.15090087e-05 -2.34933823e+00
4.42926536e-05 -1.37275764e+00 3.56938882e+00 -1.28156717e-05 -2.19840820e+00
4.70752803e-05 -1.53528454e+00 3.56875331e+00 -1.41987152e-05 -2.03529546e+00
4.99536092e-05 -1.71058095e+00 3.56823580e+00 -1.56546694e-05 -1.85954150e+00
5.29302663e-05 -1.89875897e+00 3.56748852e+00 -1.71829465e-05 -1.67070112e+00
5.60078929e-05 -2.10056340e+00 3.56681516e+00 -1.87774371e-05 -1.46832092e+00
5.91891396e-05 -2.31612904e+00 3.56594630e+00 -2.04355897e-05 -1.25200843e+00
6.24766602e-05 -2.54608628e+00 3.56507365e+00 -2.21485634e-05 -1.02133033e+00
6.58731047e-05 -2.79055568e+00 3.56407221e+00 -2.39096144e-05 -7.76013521e-01
6.93811110e-05 -3.04995931e+00 3.56295162e+00 -2.57059804e-05 -5.15734638e-01
7.30032968e-05 -3.32435515e+00 3.56180209e+00 -2.75254322e-05 -2.40319488e-01
7.67422501e-05 -3.61379796e+00 3.56038443e+00 -2.93505175e-05 5.00237495e-02
8.06005186e-05 -3.91829893e+00 3.55906102e+00 -3.11642488e-05 3.56123675e-01
8.45805987e-05 -4.23731118e+00 3.55730333e+00 -3.29418287e-05 6.75365985e-01
8.86849230e-05 -4.57068659e+00 3.55576568e+00 -3.46632012e-05 1.01133653e+00
9.29158473e-05 -4.91786172e+00 3.55363473e+00 -3.63019307e-05 1.35994651e+00
9.72756365e-05 -5.27601436e+00 3.55182667e+00 -3.78185422e-05 1.71913887e+00
1.01766615e-04 -5.64405327e+00 3.54931562e+00 -3.91765914e-05 2.09296722e+00
1.06391664e-04 -6.02350024e+00 3.54710765e+00 -4.03653410e-05 2.47461851e+00
1.11153642e-04 -6.41220979e+00 3.54414630e+00 -4.13379470e-05 2.86508421e+00
1.16055494e-04 -6.80646273e+00 3.54139743e+00 -4.20488724e-05 3.26191691e+00
1.21100235e-04 -7.20319363e+00 3.53798341e+00 -4.24564896e-05 3.66069533e+00
1.26290949e-04 -7.59982513e+00 3.53461263e+00 -4.25266173e-05 4.05977020e+00
1.31630812e-04 -7.99196411e+00 3.53071925e+00 -4.22153012e-05 4.45450045e+00
1.37123111e-04 -8.37554995e+00 3.52667438e+00 -4.14890691e-05 4.84083015e+00
1.42771263e-04 -8.74549977e+00 3.52226476e+00 -4.03169142e-05 5.21366825e+00
1.48578840e-04 -9.09635681e+00 3.51752833e+00 -3.86743037e-05 5.56751836e+00
1.54549604e-04 -9.42212222e+00 3.51256764e+00 -3.65484193e-05 5.89652532e+00
1.60687553e-04 -9.71640066e+00 3.50715558e+00 -3.39367011e-05 6.19427622e+00
1.66996940e-04 -9.97252376e+00 3.50162749e+00 -3.08530821e-05 6.45385217e+00
1.73482309e-04 -1.01836578e+01 3.49558769e+00 -2.73273269e-05 6.66847698e+00
1.80148600e-04 -1.03431451e+01 3.48950787e+00 -2.34096841e-05 6.83184456e+00
1.87001239e-04 -1.04447541e+01 3.48292031e+00 -1.91696713e-05 6.93763832e+00
1.94046022e-04 -1.04829749e+01 3.47634485e+00 -1.46979484e-05 6.97981428e+00
2.01288888e-04 -1.04532841e+01 3.46932040e+00 -1.01049951e-05 6.95401385e+00
2.08735926e-04 -1.03527106e+01 3.46234488e+00 -5.51704070e-06 6.85779751e+00
2.16393632e-04 -1.01801741e+01 3.45501747e+00 -1.07331291e-06 6.68976563e+00
2.24269110e-04 -9.93667233e+00 3.44776734e+00 3.08185630e-06 6.45040656e+00
2.32370163e-04 -9.62553493e+00 3.44028274e+00 6.80643103e-06 6.14360075e+00
2.40705499e-04 -9.25273118e+00 3.43289851e+00 9.96895865e-06 5.77561921e+00
2.49284834e-04 -8.82663525e+00 3.42539767e+00 1.24593990e-05 5.35397025e+00
2.58118704e-04 -8.35762251e+00 3.41801269e+00 1.41956239e-05 4.88890136e+00
2.67218684e-04 -7.85798846e+00 3.41061130e+00 1.51306319e-05 4.39378799e+00
2.76598306e-04 -7.34154693e+00 3.40332848e+00 1.52608235e-05 3.88242873e+00
2.86272905e-04 -6.82255069e+00 3.39609669e+00 1.46249015e-05 3.36791939e+00
2.96256965e-04 -6.31483932e+00 3.38896882e+00 1.33015676e-05 2.86412979e+00
3.06561055e-04 -5.83155471e+00 3.38192257e+00 1.14073968e-05 2.38516961e+00
3.17191700e-04 -5.38440429e+00 3.37494961e+00 9.08834576e-06 1.94278141e+00
3.28153749e-04 -4.98245625e+00 3.36805106e+00 6.50748897e-06 1.54543027e+00
3.39452075e-04 -4.63144911e+00 3.36117607e+00 3.82855532e-06 1.19882168e+00
3.51091504e-04 -4.33384011e+00 3.35433326e+00 1.20149407e-06 9.05690205e-01
3.63076300e-04 -4.08903932e+00 3.34745151e+00 -1.24796228e-06 6.65467785e-01
3.75409836e-04 -3.89378330e+00 3.34054014e+00 -3.42754063e-06 4.74835996e-01
3.88094523e-04 -3.74279347e+00 3.33352697e+00 -5.28205288e-06 3.28556728e-01
4.01132755e-04 -3.62956561e+00 3.32641924e+00 -6.79173312e-06 2.20142967e-01
4.14528905e-04 -3.54711338e+00 3.31915605e+00 -7.96731135e-06 1.42595890e-01
4.28290467e-04 -3.48862892e+00 3.31174140e+00 -8.84197686e-06 8.91324901e-02
4.42427200e-04 -3.44799508e+00 3.30413129e+00 -9.46234950e-06 5.36671602e-02
4.56949481e-04 -3.42007026e+00 3.29632690e+00 -9.87985838e-06 3.10674451e-02
4.71867626e-04 -3.40077803e+00 3.28830167e+00 -1.01442310e-05 1.72564900e-02
4.87192586e-04 -3.38705799e+00 3.28005444e+00 -1.02993502e-05 9.17619277e-03
5.02936892e-04 -3.37673438e+00 3.27157251e+00 -1.03802964e-05 4.65842775e-03
5.19113696e-04 -3.36834559e+00 3.26285269e+00 -1.04141502e-05 2.25312865e-03
5.35733761e-04 -3.36096717e+00 3.25389204e+00 -1.04195702e-05 1.03745755e-03
5.52803856e-04 -3.35404314e+00 3.24468690e+00 -1.04084800e-05 4.52587772e-04
5.70327998e-04 -3.34725816e+00 3.23523985e+00 -1.03887298e-05 1.88953548e-04
5.88308439e-04 -3.34045181e+00 3.22554767e+00 -1.03642636e-05 8.19396089e-05
6.06746423e-04 -3.33353907e+00 3.21561610e+00 -1.03374488e-05 3.09495900e-05
6.25644416e-04 -3.32646202e+00 3.20544243e+00 -1.03089655e-05 -2.73597913e-06
6.45004519e-04 -3.31921437e+00 3.19503202e+00 -1.02798871e-05 2.22066417e-06
6.64823592e-04 -3.31183931e+00 3.18438591e+00 -1.02499095e-05 3.41218749e-05
6.85098906e-04 -3.30431961e+00 3.17351074e+00 -1.02192763e-05 1.82654540e-05
7.05837363e-04 -3.29656210e+00 3.16240429e+00 -1.01880062e-05 -4.26626303e-05
7.27041404e-04 -3.28858412e+00 3.15107112e+00 -1.01559749e-05 -3.53489929e-05
7.48693238e-04 -3.28054854e+00 3.13952232e+00 -1.01234986e-05 5.29052758e-05
7.70786226e-04 -3.27247614e+00 3.12776336e+00 -1.00902800e-05 7.20902813e-05
7.93354973e-04 -3.26414863e+00 3.11578088e+00 -1.00565843e-05 -2.76121453e-05
8.16407643e-04 -3.25547940e+00 3.10357790e+00 -1.00221601e-05 -8.65292082e-05
8.39826003e-04 -3.24673094e+00 3.09122145e+00 -9.98749052e-06 -5.11043124e-06
8.63405589e-04 -3.23817610e+00 3.07881351e+00 -9.95213854e-06 1.12066086e-04
8.87012043e-04 -3.22974825e+00 3.06642227e+00 -9.91753237e-06 1.00883123e-04
9.10642211e-04 -3.22113919e+00 3.05404595e+00 -9.88232282e-06 -2.98481623e-05
9.34333991e-04 -3.21229962e+00 3.04166934e+00 -9.84776042e-06 -7.32710149e-05
9.58087730e-04 -3.20352239e+00 3.02929255e+00 -9.81307358e-06 -4.28849088e-06
9.81886801e-04 -3.19486794e+00 3.01692022e+00 -9.77805155e-06 1.89154835e-05
1.00573205e-03 -3.18620338e+00 3.00455556e+00 -9.74353957e-06 4.61688970e-06
1.02963013e-03 -3.17752613e+00 2.99219215e+00 -9.70862946e-06 7.93839037e-06
1.05357792e-03 -3.16885895e+00 2.97983181e+00 -9.67414343e-06 8.97538414e-06
1.07757029e-03 -3.16018955e+00 2.96747500e+00 -9.63939504e-06 4.65818408e-08
1.10160663e-03 -3.15150805e+00 2.95512098e+00 -9.60493121e-06 -1.05067868e-05
1.12568622e-03 -3.14282567e+00 2.94276880e+00 -9.57032321e-06 -1.88045997e-05
1.14980629e-03 -3.13414630e+00 2.93041812e+00 -9.53607827e-06 -2.90553167e-05
1.17396461e-03 -3.12546691e+00 2.91806900e+00 -9.50164468e-06 -3.75599784e-05
1.19815969e-03 -3.11679104e+00 2.90572041e+00 -9.46722453e-06 -3.89863087e-05
1.22238977e-03 -3.10812265e+00 2.89337218e+00 -9.43263062e-06 -3.31272273e-05
1.24665339e-03 -3.09945943e+00 2.88102378e+00 -9.39799409e-06 -2.14874631e-05
1.27094971e-03 -3.09079742e+00 2.86867494e+00 -9.36323213e-06 -5.79348212e-06
1.29527794e-03 -3.08213337e+00 2.85632519e+00 -9.32841506e-06 1.01515694e-05
1.31963708e-03 -3.07346340e+00 2.84397423e+00 -9.29357635e-06 2.20647562e-05
1.34402620e-03 -3.06478451e+00 2.83162180e+00 -9.25883594e-06 2.77029106e-05
1.36844440e-03 -3.05609638e+00 2.81926751e+00 -9.22433037e-06 2.70925995e-05
1.39289075e-03 -3.04740078e+00 2.80691121e+00 -9.18986348e-06 2.19508324e-05
1.41736429e-03 -3.03870035e+00 2.79455252e+00 -9.15552189e-06 1.49483430e-05
1.44186408e-03 -3.02999753e+00 2.78219133e+00 -9.12116173e-06 8.51354283e-06
1.46638935e-03 -3.02129352e+00 2.76982733e+00 -9.08685105e-06 4.00514704e-06
1.49093945e-03 -3.01258826e+00 2.75746045e+00 -9.05248502e-06 1.66195666e-06
1.51551383e-03 -3.00388101e+00 2.74509048e+00 -9.01802427e-06 9.20312025e-07
1.54011192e-03 -2.99517091e+00 2.73271735e+00 -8.98352708e-06 9.15720627e-07
1.56473315e-03 -2.98645731e+00 2.72034094e+00 -8.94897484e-06 9.95886799e-07
1.58937692e-03 -2.97773997e+00 2.70796120e+00 -8.91444958e-06 9.08248324e-07
1.61404265e-03 -2.96901892e+00 2.69557806e+00 -8.87994958e-06 6.76288107e-07
1.63872977e-03 -2.96029426e+00 2.68319151e+00 -8.84545749e-06 4.37699240e-07
1.66343767e-03 -2.95156607e+00 2.67080151e+00 -8.81082356e-06 3.19068962e-07
1.68816576e-03 -2.94283447e+00 2.65840805e+00 -8.77633291e-06 3.27415808e-07
1.71291347e-03 -2.93409949e+00 2.64601117e+00 -8.74184774e-06 3.58336487e-07
1.73768036e-03 -2.92536100e+00 2.63361088e+00 -8.70717355e-06 3.32822524e-07
1.76246611e-03 -2.91661896e+00 2.62120724e+00 -8.67263009e-06 2.69829958e-07
1.78727042e-03 -2.90787349e+00 2.60880029e+00 -8.63806510e-06 2.10685899e-07
1.81209296e-03 -2.89912475e+00 2.59639011e+00 -8.60342122e-06 1.54830437e-07
1.83693342e-03 -2.89037276e+00 2.58397677e+00 -8.56890194e-06 9.67794157e-08
1.86179148e-03 -2.88161756e+00 2.57156036e+00 -8.53424878e-06 5.24031069e-08
1.88666682e-03 -2.87285926e+00 2.55914097e+00 -8.49966185e-06 2.14672523e-08
1.91155912e-03 -2.86409796e+00 2.54671869e+00 -8.46504982e-06 -2.08439139e-08
1.93646805e-03 -2.85533370e+00 2.53429363e+00 -8.43036645e-06 -8.02685767e-08
1.96139330e-03 -2.84656658e+00 2.52186589e+00 -8.39579216e-06 -1.34619100e-07
1.98633453e-03 -2.83779674e+00 2.50943559e+00 -8.36110955e-06 -1.74341914e-07
2.01129144e-03 -2.82902432e+00 2.49700283e+00 -8.32651307e-06 -2.15003078e-07
2.03626374e-03 -2.82024934e+00 2.48456775e+00 -8.29190282e-06 -2.66103000e-07
2.06125122e-03 -2.81147189e+00 2.47213046e+00 -8.25720862e-06 -3.17802435e-07
2.08625363e-03 -2.80269209e+00 2.45969109e+00 -8.22255367e-06 -3.62203571e-07
2.11127074e-03 -2.79391007e+00 2.44724977e+00 -8.18796701e-06 -4.04989572e-07
2.13630232e-03 -2.78512592e+00 2.43480663e+00 -8.15324662e-06 -4.52265387e-07
2.16134814e-03 -2.77633972e+00 2.42236180e+00 -8.11859559e-06 -5.01189316e-07
2.18640795e-03 -2.76755160e+00 2.40991542e+00 -8.08402112e-06 -5.46819381e-07
2.21148153e-03 -2.75876166e+00 2.39746761e+00 -8.04932493e-06 -5.89683877e-07
2.23656863e-03 -2.74997001e+00 2.38501852e+00 -8.01466928e-06 -6.33983662e-07
2.26166902e-03 -2.74117675e+00 2.37256826e+00 -7.98000675e-06 -6.81173036e-07
2.28678246e-03 -2.73238198e+00 2.36011698e+00 -7.94535995e-06 -7.27760264e-07
2.31190871e-03 -2.72358581e+00 2.34766480e+00 -7.91067179e-06 -7.70754816e-07
2.33704753e-03 -2.71478836e+00 2.33521186e+00 -7.87596503e-06 -8.12561966e-07
2.36219870e-03 -2.70598971e+00 2.32275829e+00 -7.84137096e-06 -8.56762918e-07
2.38736200e-03 -2.69718995e+00 2.31030421e+00 -7.80665702e-06 -9.02124466e-07
2.41253722e-03 -2.68838919e+00 2.29784975e+00 -7.77191636e-06 -9.45529103e-07
2.43772414e-03 -2.67958753e+00 2.28539505e+00 -7.73734185e-06 -9.87405172e-07
2.46292257e-03 -2.67078506e+00 2.27294023e+00 -7.70262323e-06 -1.02979284e-06
2.48813228e-03 -2.66198189e+00 2.26048541e+00 -7.66790012e-06 -1.07251241e-06
2.51335305e-03 -2.65317809e+00 2.24803073e+00 -7.63326515e-06 -1.11456220e-06
2.53858469e-03 -2.64437376e+00 2.23557630e+00 -7.59861773e-06 -1.15620340e-06
2.56382697e-03 -2.63556901e+00 2.22312224e+00 -7.56392127e-06 -1.19763113e-06
2.58907968e-03 -2.62676391e+00 2.21066868e+00 -7.52923094e-06 -1.23836087e-06
2.61434260e-03 -2.61795855e+00 2.19821574e+00 -7.49464269e-06 -1.27864048e-06
2.63961552e-03 -2.60915303e+00 2.18576353e+00 -7.45999706e-06 -1.31911423e-06
2.66489823e-03 -2.60034743e+00 2.17331217e+00 -7.42524974e-06 -1.35932812e-06
2.69019051e-03 -2.59154183e+00 2.16086178e+00 -7.39065405e-06 -1.39848763e-06
2.71549214e-03 -2.58273633e+00 2.14841248e+00 -7.35607481e-06 -1.43700089e-06
2.74080291e-03 -2.57393100e+00 2.13596436e+00 -7.32142280e-06 -1.47564990e-06
2.76612261e-03 -2.56512591e+00 2.12351756e+00 -7.28675932e-06 -1.51415466e-06
2.79145103e-03 -2.55632116e+00 2.11107218e+00 -7.25216352e-06 -1.55182683e-06
2.81678795e-03 -2.54751682e+00 2.09862832e+00 -7.21756094e-06 -1.58877031e-06
2.84213317e-03 -2.53871298e+00 2.08618610e+00 -7.18290299e-06 -1.62544732e-06
2.86748647e-03 -2.52990970e+00 2.07374563e+00 -7.14833480e-06 -1.66182742e-06
2.89284765e-03 -2.52110706e+00 2.06130701e+00 -7.11374728e-06 -1.69762826e-06
2.91821649e-03 -2.51230514e+00 2.04887035e+00 -7.07910319e-06 -1.73285426e-06
2.94359277e-03 -2.50350401e+00 2.03643575e+00 -7.04447610e-06 -1.76769634e-06
2.96897629e-03 -2.49470375e+00 2.02400332e+00 -7.00999187e-06 -1.80212724e-06
2.99436683e-03 -2.48590443e+00 2.01157315e+00 -6.97540564e-06 -1.83595185e-06
3.01976418e-03 -2.47710611e+00 1.99914536e+00 -6.94082079e-06 -1.86916312e-06
3.04516813e-03 -2.46830889e+00 1.98672004e+00 -6.90628003e-06 -1.90194895e-06
3.07057846e-03 -2.45951281e+00 1.97429730e+00 -6.87173852e-06 -1.93435587e-06
3.09599496e-03 -2.45071795e+00 1.96187723e+00 -6.83720935e-06 -1.96620693e-06
3.12141741e-03 -2.44192439e+00 1.94945994e+00 -6.80273305e-06 -1.99740876e-06
3.14684560e-03 -2.43313219e+00 1.93704552e+00 -6.76820600e-06 -2.02811471e-06
3.17227932e-03 -2.42434142e+00 1.92463408e+00 -6.73367877e-06 -2.05844242e-06
3.19771835e-03 -2.41555215e+00 1.91222571e+00 -6.69920737e-06 -2.08826401e-06
3.22316248e-03 -2.40676444e+00 1.89982052e+00 -6.66478178e-06 -2.11745697e-06
3.24861150e-03 -2.39797836e+00 1.88741859e+00 -6.63031495e-06 -2.14608726e-06
3.27406520e-03 -2.38919397e+00 1.87502003e+00 -6.59586536e-06 -2.17423793e-06
3.29952335e-03 -2.38041135e+00 1.86262493e+00 -6.56142481e-06 -2.20187900e-06
3.32498575e-03 -2.37163056e+00 1.85023339e+00 -6.52694825e-06 -2.22894667e-06
3.35045219e-03 -2.36285166e+00 1.83784550e+00 -6.49252102e-06 -2.25545142e-06
3.37592244e-03 -2.35407471e+00 1.82546135e+00 -6.45806968e-06 -2.28143880e-06
3.40139629e-03 -2.34529979e+00 1.81308104e+00 -6.42370460e-06 -2.30691516e-06
3.42687354e-03 -2.33652694e+00 1.80070466e+00 -6.38922604e-06 -2.33174538e-06
3.45235396e-03 -2.32775625e+00 1.78833231e+00 -6.35481144e-06 -2.35599563e-06
3.47783734e-03 -2.31898777e+00 1.77596408e+00 -6.32052144e-06 -2.37978649e-06
3.50332346e-03 -2.31022156e+00 1.76360006e+00 -6.28613296e-06 -2.40327139e-06
3.52881212e-03 -2.30145768e+00 1.75124034e+00 -6.25173740e-06 -2.42580437e-06
3.55430309e-03 -2.29269621e+00 1.73888501e+00 -6.21748187e-06 -2.44728339e-06
3.57979617e-03 -2.28393720e+00 1.72653418e+00 -6.18312267e-06 -2.46898041e-06
3.60529113e-03 -2.27518072e+00 1.71418792e+00 -6.14880877e-06 -2.49016930e-06
3.63078776e-03 -2.26642682e+00 1.70184634e+00 -6.11459829e-06 -2.51043828e-06
3.65628585e-03 -2.25767557e+00 1.68950953e+00 -6.08033315e-06 -2.53027798e-06
3.68178518e-03 -2.24892704e+00 1.67717757e+00 -6.04611478e-06 -2.54946141e-06
3.70728554e-03 -2.24018127e+00 1.66485057e+00 -6.01190654e-06 -2.56805891e-06
3.73278671e-03 -2.23143835e+00 1.65252861e+00 -5.97779514e-06 -2.58608562e-06
3.75828848e-03 -2.22269832e+00 1.64021178e+00 -5.94355395e-06 -2.60357709e-06
3.78379063e-03 -2.21396125e+00 1.62790018e+00 -5.90942587e-06 -2.62049206e-06
3.80929295e-03 -2.20522721e+00 1.61559390e+00 -5.87535742e-06 -2.63680692e-06
3.83479523e-03 -2.19649625e+00 1.60329303e+00 -5.84124490e-06 -2.65252965e-06
3.86029724e-03 -2.18776843e+00 1.59099765e+00 -5.80719502e-06 -2.66766778e-06
3.88579878e-03 -2.17904382e+00 1.57870787e+00 -5.77311148e-06 -2.68222697e-06
3.91129962e-03 -2.17032247e+00 1.56642376e+00 -5.73908767e-06 -2.69619571e-06
3.93679956e-03 -2.16160446e+00 1.55414543e+00 -5.70504123e-06 -2.70956664e-06
3.96229838e-03 -2.15288984e+00 1.54187295e+00 -5.67105307e-06 -2.72235288e-06
3.98779586e-03 -2.14417866e+00 1.52960642e+00 -5.63701784e-06 -2.73456938e-06
4.01329179e-03 -2.13547100e+00 1.51734593e+00 -5.60304172e-06 -2.74623201e-06
4.03878596e-03 -2.12676691e+00 1.50509156e+00 -5.56905384e-06 -2.75736172e-06
4.06427815e-03 -2.11806646e+00 1.49284341e+00 -5.53506908e-06 -2.76796069e-06
4.08976814e-03 -2.10936970e+00 1.48060157e+00 -5.50109499e-06 -2.77795572e-06
4.11525573e-03 -2.10067670e+00 1.46836612e+00 -5.46716078e-06 -2.78719038e-06
4.14074070e-03 -2.09198752e+00 1.45613716e+00 -5.43324337e-06 -2.79555336e-06
4.16622283e-03 -2.08330222e+00 1.44391477e+00 -5.39930948e-06 -2.80310425e-06
4.19170190e-03 -2.07462085e+00 1.43169904e+00 -5.36544317e-06 -2.81010896e-06
4.21717772e-03 -2.06594349e+00 1.41949007e+00 -5.33158165e-06 -2.81701857e-06
4.24265005e-03 -2.05727019e+00 1.40728794e+00 -5.29767360e-06 -2.82436850e-06
4.26811870e-03 -2.04860102e+00 1.39509274e+00 -5.26385648e-06 -2.83254851e-06
4.29358344e-03 -2.03993603e+00 1.38290456e+00 -5.23008767e-06 -2.84151592e-06
4.31904406e-03 -2.03127528e+00 1.37072348e+00 -5.19628955e-06 -2.85064378e-06
4.34450035e-03 -2.02261885e+00 1.35854961e+00 -5.16255630e-06 -2.85885136e-06
4.36995209e-03 -2.01396678e+00 1.34638302e+00 -5.12884978e-06 -2.86500036e-06
4.39539908e-03 -2.00531915e+00 1.33422380e+00 -5.09517316e-06 -2.86833441e-06
4.42084110e-03 -1.99667601e+00 1.32207205e+00 -5.06150074e-06 -2.86881984e-06
4.44627793e-03 -1.98803743e+00 1.30992784e+00 -5.02783004e-06 -2.86722213e-06
4.47170937e-03 -1.97940346e+00 1.29779128e+00 -4.99424469e-06 -2.86480509e-06
4.49713520e-03 -1.97077417e+00 1.28566244e+00 -4.96063622e-06 -2.86281670e-06
4.52255522e-03 -1.96214961e+00 1.27354142e+00 -4.92708089e-06 -2.86203228e-06
4.54796920e-03 -1.95352984e+00 1.26142830e+00 -4.89359414e-06 -2.86254825e-06
4.57337694e-03 -1.94491494e+00 1.24932317e+00 -4.86001240e-06 -2.86384510e-06
4.59877823e-03 -1.93630495e+00 1.23722611e+00 -4.82658724e-06 -2.86512986e-06
4.62417285e-03 -1.92769995e+00 1.22513722e+00 -4.79311587e-06 -2.86571110e-06
4.64956059e-03 -1.91909999e+00 1.21305659e+00 -4.75966081e-06 -2.86521614e-06
4.67494125e-03 -1.91050513e+00 1.20098429e+00 -4.72627222e-06 -2.86364373e-06
4.70031461e-03 -1.90191544e+00 1.18892041e+00 -4.69286139e-06 -2.86122506e-06
