VARIABLES="Y/c","convection","viscous",pressure gradient",Reynolds stress"
0.00000000e+00 0.00000000e+00 7.25933731e+00 6.77207832e+00 -4.62993315e+00
1.15306955e-06 -3.74871390e-02 7.25941289e+00 -1.26450459e+01 5.61006775e+00
2.34903200e-06 -5.75416469e-02 7.25914875e+00 -3.68716303e+01 2.84997332e+01
3.58934649e-06 -1.50396101e-01 7.25875027e+00 -8.71188895e+01 8.17726173e+01
4.87551033e-06 -2.35785890e-01 7.25830372e+00 -1.47331779e+02 1.38793603e+02
6.20905899e-06 -3.71174978e-01 7.25788483e+00 -2.08571024e+02 2.03377486e+02
7.59156595e-06 -5.04772685e-01 7.25758129e+00 -2.57731849e+02 2.50671454e+02
9.02464242e-06 -6.73667776e-01 7.25743916e+00 -2.87993563e+02 2.82708032e+02
1.05099369e-05 -8.53365671e-01 7.25749701e+00 -2.97640141e+02 2.91990066e+02
1.20491347e-05 -1.06644383e+00 7.25775257e+00 -2.89948065e+02 2.84924047e+02
1.36439569e-05 -1.30004700e+00 7.25823628e+00 -2.69742780e+02 2.64975866e+02
1.52961597e-05 -1.56212884e+00 7.25897135e+00 -2.42573734e+02 2.38013157e+02
1.70075333e-05 -1.84195058e+00 7.26004835e+00 -2.12457347e+02 2.08278882e+02
1.87799000e-05 -2.13747610e+00 7.26151976e+00 -1.82763748e+02 1.78723503e+02
2.06151132e-05 -2.43982314e+00 7.26343711e+00 -1.55042160e+02 1.51350360e+02
2.25150550e-05 -2.74371561e+00 7.26576414e+00 -1.30478871e+02 1.26952066e+02
2.44816340e-05 -3.04183371e+00 7.26846158e+00 -1.09135634e+02 1.05895379e+02
2.65167832e-05 -3.32694578e+00 7.27141248e+00 -9.10796199e+01 8.80247178e+01
2.86224563e-05 -3.59466907e+00 7.27453233e+00 -7.59058004e+01 7.30750177e+01
3.08006252e-05 -3.84373134e+00 7.27769087e+00 -6.33094932e+01 6.06603009e+01
3.30532756e-05 -4.07706669e+00 7.28078794e+00 -5.28826989e+01 5.04114709e+01
3.53824031e-05 -4.29534544e+00 7.28364936e+00 -4.42638187e+01 4.19644946e+01
3.77900086e-05 -4.50067631e+00 7.28611777e+00 -3.71469584e+01 3.49979435e+01
4.02780930e-05 -4.69664393e+00 7.28798261e+00 -3.12212449e+01 2.92349407e+01
4.28486511e-05 -4.89014409e+00 7.28913920e+00 -2.62985182e+01 2.44582861e+01
4.55036658e-05 -5.08016355e+00 7.28958459e+00 -2.21754164e+01 2.04997983e+01
4.82451003e-05 -5.25763252e+00 7.28947172e+00 -1.87547749e+01 1.72176008e+01
5.10748910e-05 -5.41755831e+00 7.28898650e+00 -1.58861053e+01 1.44876845e+01
5.39949385e-05 -5.57226098e+00 7.28830630e+00 -1.34854473e+01 1.22104861e+01
5.70070981e-05 -5.73235831e+00 7.28742926e+00 -1.14504466e+01 1.03171386e+01
6.01131701e-05 -5.89029189e+00 7.28624251e+00 -9.74947784e+00 8.74823803e+00
6.33148880e-05 -6.03256846e+00 7.28493806e+00 -8.31678416e+00 7.44189491e+00
6.66139068e-05 -6.15726876e+00 7.28382663e+00 -7.11388064e+00 6.34401434e+00
7.00117891e-05 -6.26816835e+00 7.28311869e+00 -6.09248638e+00 5.41824743e+00
7.35099914e-05 -6.36922157e+00 7.28276634e+00 -5.23107411e+00 4.64067725e+00
7.71098481e-05 -6.46515026e+00 7.28288949e+00 -4.49920611e+00 3.99046975e+00
8.08125546e-05 -6.56480187e+00 7.28337801e+00 -3.86915804e+00 3.44385185e+00
8.46191490e-05 -6.67396015e+00 7.28416757e+00 -3.31218680e+00 2.98478249e+00
8.85304929e-05 -6.78261201e+00 7.28490782e+00 -2.83256814e+00 2.60009043e+00
9.25472532e-05 -6.88196710e+00 7.28553980e+00 -2.42098757e+00 2.27493199e+00
9.66704716e-05 -6.98217450e+00 7.28608122e+00 -2.05314241e+00 1.99900887e+00
1.00902374e-04 -7.08435415e+00 7.28704559e+00 -1.72775367e+00 1.76355721e+00
1.05245566e-04 -7.17559596e+00 7.28861538e+00 -1.44758913e+00 1.56262785e+00
1.09702879e-04 -7.25579415e+00 7.29082924e+00 -1.20674998e+00 1.39257675e+00
1.14277498e-04 -7.33434706e+00 7.29323280e+00 -9.97101648e-01 1.24923319e+00
1.18972966e-04 -7.41970813e+00 7.29551240e+00 -7.96320170e-01 1.12401515e+00
1.23793266e-04 -7.51284442e+00 7.29763029e+00 -6.02136186e-01 1.01346499e+00
1.28742948e-04 -7.59865743e+00 7.29969870e+00 -4.32138408e-01 9.18446265e-01
1.33827176e-04 -7.67086818e+00 7.30152223e+00 -2.82659960e-01 8.33931901e-01
1.39051787e-04 -7.75258134e+00 7.30278830e+00 -1.32584321e-01 7.57520955e-01
1.44423515e-04 -7.86077402e+00 7.30366717e+00 3.41564050e-02 6.92548181e-01
1.49950198e-04 -7.97674479e+00 7.30484957e+00 1.96231633e-01 6.39282623e-01
1.55640686e-04 -8.08793620e+00 7.30611191e+00 3.46574736e-01 5.91179660e-01
1.61504909e-04 -8.21071750e+00 7.30689093e+00 5.10161636e-01 5.46144570e-01
1.67554646e-04 -8.33507331e+00 7.30676253e+00 6.65177917e-01 5.08907788e-01
1.73803922e-04 -8.43506085e+00 7.30554732e+00 7.90887133e-01 4.78821575e-01
1.80267329e-04 -8.51488474e+00 7.30382285e+00 8.96951741e-01 4.50939938e-01
1.86957172e-04 -8.57984561e+00 7.30282371e+00 9.85439287e-01 4.20343093e-01
1.93882516e-04 -8.63652387e+00 7.30288006e+00 1.07279933e+00 3.87717752e-01
2.01050967e-04 -8.70265505e+00 7.30304840e+00 1.16109752e+00 3.59945251e-01
2.08470653e-04 -8.78159610e+00 7.30259878e+00 1.25731471e+00 3.37146388e-01
2.16150509e-04 -8.87087023e+00 7.30141988e+00 1.36783287e+00 3.16243546e-01
2.24099774e-04 -8.97093739e+00 7.29981767e+00 1.48277002e+00 2.95802677e-01
2.32327935e-04 -9.07729004e+00 7.29857106e+00 1.61052689e+00 2.73869852e-01
2.40844911e-04 -9.17075274e+00 7.29848218e+00 1.72175680e+00 2.54374998e-01
2.49661124e-04 -9.23692581e+00 7.29900073e+00 1.79415355e+00 2.39125539e-01
2.58787676e-04 -9.30423890e+00 7.29844638e+00 1.87542580e+00 2.23915992e-01
2.68236280e-04 -9.40013729e+00 7.29651876e+00 1.98424793e+00 2.10601745e-01
2.78018405e-04 -9.49904443e+00 7.29439333e+00 2.09023442e+00 2.01787154e-01
2.88144236e-04 -9.57111394e+00 7.29352228e+00 2.16892574e+00 1.92675840e-01
2.98622597e-04 -9.63476787e+00 7.29248263e+00 2.24533514e+00 1.80326444e-01
3.09461742e-04 -9.72771989e+00 7.28916826e+00 2.35361539e+00 1.67285405e-01
3.20669887e-04 -9.85470933e+00 7.28389621e+00 2.49397359e+00 1.53193330e-01
3.32255120e-04 -9.99195944e+00 7.27840929e+00 2.65342858e+00 1.38188386e-01
3.44225186e-04 -1.01153133e+01 7.27455675e+00 2.79120437e+00 1.28213233e-01
3.56587397e-04 -1.02211155e+01 7.27190177e+00 2.89488885e+00 1.22619936e-01
3.69348590e-04 -1.03336990e+01 7.26749224e+00 3.01895796e+00 1.15205729e-01
3.82515251e-04 -1.04459556e+01 7.26229309e+00 3.14147360e+00 1.08608269e-01
3.96093866e-04 -1.05322496e+01 7.25823254e+00 3.22479304e+00 1.05412521e-01
4.10091077e-04 -1.06259017e+01 7.25362626e+00 3.32582048e+00 9.95941982e-02
4.24513409e-04 -1.07447907e+01 7.24850399e+00 3.45948211e+00 8.99757047e-02
4.39366941e-04 -1.08435695e+01 7.24337694e+00 3.57135483e+00 8.40792160e-02
4.54657127e-04 -1.08967248e+01 7.23875793e+00 3.62470518e+00 8.37743953e-02
4.70388765e-04 -1.09376962e+01 7.23321096e+00 3.66927088e+00 8.17902927e-02
4.86566063e-04 -1.10196227e+01 7.22575887e+00 3.76887141e+00 7.54982106e-02
5.03192554e-04 -1.11401576e+01 7.21858933e+00 3.89660154e+00 6.96243664e-02
5.20270911e-04 -1.12517792e+01 7.21108563e+00 4.01266599e+00 6.59934372e-02
5.37803367e-04 -1.13288694e+01 7.20144320e+00 4.10539229e+00 6.42829630e-02
5.55791963e-04 -1.13686610e+01 7.19122481e+00 4.15089703e+00 6.46897166e-02
5.74237296e-04 -1.13976906e+01 7.18184049e+00 4.18135289e+00 6.35838037e-02
5.93138390e-04 -1.14566923e+01 7.17402754e+00 4.25787071e+00 5.91034458e-02
6.12494919e-04 -1.15422580e+01 7.16610972e+00 4.35554247e+00 5.59290172e-02
6.32305677e-04 -1.16353048e+01 7.15748615e+00 4.44856167e+00 5.53359749e-02
6.52564621e-04 -1.17428399e+01 7.14812605e+00 4.56567649e+00 5.36506024e-02
6.73267127e-04 -1.18627014e+01 7.13834623e+00 4.69775240e+00 5.10098601e-02
6.94417795e-04 -1.19665576e+01 7.12775889e+00 4.80901696e+00 4.91807718e-02
7.16016187e-04 -1.20310001e+01 7.11634128e+00 4.88120233e+00 4.74087998e-02
7.38044143e-04 -1.20632931e+01 7.10609139e+00 4.92062076e+00 4.65014104e-02
7.60496391e-04 -1.20903045e+01 7.09942356e+00 4.95031549e+00 4.73657298e-02
7.83403032e-04 -1.21264465e+01 7.09290303e+00 4.99104791e+00 4.69787056e-02
8.06760144e-04 -1.21687061e+01 7.08472885e+00 5.04855104e+00 4.43653543e-02
8.30441359e-04 -1.22112048e+01 7.07552540e+00 5.08235939e+00 4.30218375e-02
8.54246883e-04 -1.22437722e+01 7.06614773e+00 5.12411644e+00 4.40468118e-02
8.78052043e-04 -1.22551896e+01 7.05854697e+00 5.14052338e+00 4.47355544e-02
9.01856614e-04 -1.22498719e+01 7.05128680e+00 5.15040965e+00 4.30175925e-02
9.25695583e-04 -1.22427075e+01 7.04299406e+00 5.16191658e+00 3.98242097e-02
9.49567946e-04 -1.22361728e+01 7.03413558e+00 5.13814644e+00 3.93853223e-02
9.73458240e-04 -1.22153482e+01 7.02599311e+00 5.12247778e+00 4.17611816e-02
9.97367800e-04 -1.21672847e+01 7.01775015e+00 5.08283609e+00 4.21377451e-02
1.02130324e-03 -1.20998210e+01 7.01023938e+00 5.02490510e+00 4.16567735e-02
1.04526263e-03 -1.20220646e+01 7.00302539e+00 4.94344411e+00 4.31048913e-02
1.06924284e-03 -1.19353961e+01 6.99538832e+00 4.86022462e+00 4.44390929e-02
1.09324487e-03 -1.18537778e+01 6.98752806e+00 4.79121803e+00 4.42162664e-02
1.11726936e-03 -1.17871870e+01 6.97967009e+00 4.72751353e+00 4.35142007e-02
1.14131519e-03 -1.17226397e+01 6.97258394e+00 4.66985887e+00 4.29489361e-02
1.16538182e-03 -1.16333205e+01 6.96674554e+00 4.58867944e+00 4.28750298e-02
1.18946937e-03 -1.15011281e+01 6.96146756e+00 4.45580821e+00 4.33133500e-02
1.21357750e-03 -1.13466207e+01 6.95617058e+00 4.30523837e+00 4.28553625e-02
1.23770582e-03 -1.12055804e+01 6.95085858e+00 4.17400343e+00 4.15513200e-02
1.26185421e-03 -1.10728237e+01 6.94543882e+00 4.04317761e+00 4.11066851e-02
1.28602256e-03 -1.09255206e+01 6.94030978e+00 3.89632941e+00 4.12988990e-02
1.31021062e-03 -1.07715941e+01 6.93559212e+00 3.74973872e+00 4.09105874e-02
1.33441821e-03 -1.06195332e+01 6.93125433e+00 3.60077660e+00 4.00448995e-02
1.35864517e-03 -1.04599941e+01 6.92723546e+00 3.44406258e+00 3.89076124e-02
1.38289131e-03 -1.03011699e+01 6.92319679e+00 3.29010912e+00 3.73972722e-02
1.40715644e-03 -1.01569551e+01 6.91875356e+00 3.14948337e+00 3.59650961e-02
1.43144038e-03 -1.00168196e+01 6.91407161e+00 3.01363357e+00 3.52117911e-02
1.45574294e-03 -9.87021472e+00 6.90921867e+00 2.87086595e+00 3.51966499e-02
1.48006392e-03 -9.72152353e+00 6.90411778e+00 2.72525470e+00 3.51440083e-02
1.50440314e-03 -9.57165212e+00 6.89939754e+00 2.57903726e+00 3.40596463e-02
1.52876041e-03 -9.42193047e+00 6.89544627e+00 2.43441337e+00 3.21630121e-02
1.55313553e-03 -9.28113609e+00 6.89150574e+00 2.29749312e+00 3.07535049e-02
1.57752830e-03 -9.14888497e+00 6.88697668e+00 2.16652753e+00 3.01883465e-02
1.60193854e-03 -9.01885083e+00 6.88199612e+00 2.03949213e+00 2.94097864e-02
1.62636605e-03 -8.89536748e+00 6.87706236e+00 1.92128420e+00 2.78912773e-02
1.65081062e-03 -8.78051922e+00 6.87285082e+00 1.80985480e+00 2.63917062e-02
1.67527207e-03 -8.66513175e+00 6.86907580e+00 1.69577172e+00 2.54668476e-02
1.69975020e-03 -8.54569576e+00 6.86523182e+00 1.57884242e+00 2.47326849e-02
1.72424482e-03 -8.42896351e+00 6.86144824e+00 1.46487138e+00 2.36914422e-02
1.74875573e-03 -8.32088037e+00 6.85771832e+00 1.35983227e+00 2.23461077e-02
1.77328275e-03 -8.22201943e+00 6.85416573e+00 1.26430871e+00 2.10519334e-02
1.79782567e-03 -8.13012850e+00 6.85066636e+00 1.17420848e+00 1.99644550e-02
1.82238432e-03 -8.04354896e+00 6.84706653e+00 1.09019112e+00 1.88096013e-02
1.84695849e-03 -7.96065855e+00 6.84356633e+00 1.01078536e+00 1.74649842e-02
1.87154799e-03 -7.87918153e+00 6.84017095e+00 9.32399725e-01 1.62275530e-02
1.89615264e-03 -7.79848476e+00 6.83675516e+00 8.54602468e-01 1.52554938e-02
1.92077223e-03 -7.71935976e+00 6.83325929e+00 7.78616742e-01 1.43576257e-02
1.94540657e-03 -7.64340253e+00 6.82967858e+00 7.06398475e-01 1.34186671e-02
1.97005546e-03 -7.57318333e+00 6.82593858e+00 6.39574302e-01 1.25065173e-02
1.99471871e-03 -7.51034525e+00 6.82219169e+00 5.79783445e-01 1.15853664e-02
2.01939613e-03 -7.45494871e+00 6.81851917e+00 5.28607639e-01 1.06343851e-02
2.04408751e-03 -7.40474917e+00 6.81505549e+00 4.81476948e-01 9.76319456e-03
2.06879266e-03 -7.35677722e+00 6.81172314e+00 4.36017221e-01 8.88988741e-03
2.09351137e-03 -7.31226099e+00 6.80841086e+00 3.95345135e-01 7.91534426e-03
2.11824347e-03 -7.27343763e+00 6.80514442e+00 3.59647548e-01 7.04215371e-03
2.14298873e-03 -7.23813067e+00 6.80188080e+00 3.26711443e-01 6.38275521e-03
2.16774697e-03 -7.20447205e+00 6.79852211e+00 2.96269510e-01 5.82597494e-03
2.19251798e-03 -7.17351087e+00 6.79510103e+00 2.68379846e-01 5.35911548e-03
2.21730157e-03 -7.14454898e+00 6.79168336e+00 2.41855585e-01 4.96228025e-03
2.24209753e-03 -7.11602647e+00 6.78806950e+00 2.16544694e-01 4.48453095e-03
2.26690567e-03 -7.08886763e+00 6.78434196e+00 1.92873103e-01 3.89330501e-03
2.29172577e-03 -7.06472497e+00 6.78071784e+00 1.71923416e-01 3.33923965e-03
2.31655765e-03 -7.04371771e+00 6.77718212e+00 1.53952944e-01 2.94775171e-03
2.34140110e-03 -7.02444139e+00 6.77367555e+00 1.37244896e-01 2.68335792e-03
2.36625591e-03 -7.00627380e+00 6.77018349e+00 1.22039156e-01 2.43981877e-03
2.39112189e-03 -6.98973741e+00 6.76669916e+00 1.08357553e-01 2.18557618e-03
2.41599883e-03 -6.97447821e+00 6.76317110e+00 9.57026838e-02 1.92292605e-03
2.44088652e-03 -6.96035908e+00 6.75953815e+00 8.48343014e-02 1.67500532e-03
2.46578477e-03 -6.94766035e+00 6.75587243e+00 7.50017719e-02 1.50076519e-03
2.49069338e-03 -6.93592698e+00 6.75220488e+00 6.58911247e-02 1.36265502e-03
2.51561212e-03 -6.92533133e+00 6.74845778e+00 5.85705182e-02 1.19514314e-03
2.54054081e-03 -6.91574624e+00 6.74465807e+00 5.20853001e-02 1.06007726e-03
2.56547924e-03 -6.90558508e+00 6.74083302e+00 4.47166744e-02 9.85828676e-04
2.59042720e-03 -6.89504175e+00 6.73698516e+00 3.72094173e-02 8.68638278e-04
2.61538449e-03 -6.88670288e+00 6.73316260e+00 3.21357249e-02 6.75399744e-04
2.64035089e-03 -6.88134872e+00 6.72934570e+00 2.99097639e-02 5.21629907e-04
2.66532621e-03 -6.87664930e+00 6.72548440e+00 2.81207328e-02 4.79373274e-04
2.69031024e-03 -6.87051453e+00 6.72162122e+00 2.48510617e-02 4.70160326e-04
2.71530277e-03 -6.86362066e+00 6.71775475e+00 2.11407162e-02 4.17632789e-04
2.74030359e-03 -6.85753340e+00 6.71387928e+00 1.81669405e-02 3.58812479e-04
2.76531250e-03 -6.85218629e+00 6.71000536e+00 1.56642253e-02 3.24209582e-04
2.79032929e-03 -6.84702206e+00 6.70610638e+00 1.36604020e-02 2.82383228e-04
2.81535375e-03 -6.84216193e+00 6.70218174e+00 1.19458559e-02 2.31996634e-04
2.84038567e-03 -6.83762320e+00 6.69822768e+00 1.04550194e-02 1.90139223e-04
2.86542485e-03 -6.83335167e+00 6.69426110e+00 9.33723334e-03 1.44302451e-04
2.89047107e-03 -6.82955645e+00 6.69027807e+00 8.72869912e-03 9.50747089e-05
2.91552413e-03 -6.82616265e+00 6.68628536e+00 8.51014352e-03 6.92847421e-05
2.94058382e-03 -6.82252515e+00 6.68230180e+00 7.93501173e-03 7.21857477e-05
2.96564992e-03 -6.81831089e+00 6.67830495e+00 6.85474691e-03 7.99236160e-05
2.99072224e-03 -6.81406867e+00 6.67428289e+00 5.81308177e-03 8.04031317e-05
3.01580056e-03 -6.81027583e+00 6.67027219e+00 5.13683361e-03 7.68787189e-05
3.04088466e-03 -6.80678981e+00 6.66628617e+00 4.78823209e-03 6.67863725e-05
3.06597434e-03 -6.80340171e+00 6.66229881e+00 4.56363921e-03 5.22318917e-05
3.09106940e-03 -6.80003325e+00 6.65831241e+00 4.32095461e-03 4.34645564e-05
3.11616961e-03 -6.79660544e+00 6.65435452e+00 3.99667981e-03 4.30926388e-05
3.14127477e-03 -6.79307915e+00 6.65040008e+00 3.57449942e-03 4.54809597e-05
3.16638466e-03 -6.78945619e+00 6.64641974e+00 3.07220736e-03 4.22009032e-05
3.19149908e-03 -6.78584742e+00 6.64243559e+00 2.59974073e-03 2.70457705e-05
3.21661782e-03 -6.78245162e+00 6.63846948e+00 2.36509388e-03 8.20086446e-06
3.24174066e-03 -6.77921958e+00 6.63451188e+00 2.24400044e-03 2.20642207e-06
3.26686739e-03 -6.77592022e+00 6.63055106e+00 2.01682099e-03 8.40243007e-06
3.29199780e-03 -6.77258855e+00 6.62658992e+00 1.81099560e-03 1.33638640e-05
3.31713168e-03 -6.76935790e+00 6.62263239e+00 1.69942033e-03 1.65185498e-05
3.34226881e-03 -6.76608577e+00 6.61868046e+00 1.51720915e-03 2.37755387e-05
3.36740899e-03 -6.76259768e+00 6.61473699e+00 1.10537336e-03 2.76179379e-05
3.39255201e-03 -6.75902411e+00 6.61080629e+00 6.33906631e-04 1.73010347e-05
3.41769764e-03 -6.75565568e+00 6.60688645e+00 3.79011575e-04 -1.20259920e-06
3.44284568e-03 -6.75263112e+00 6.60297128e+00 4.17425090e-04 -1.38333781e-05
3.46799592e-03 -6.74982564e+00 6.59905724e+00 6.95739761e-04 -1.54686707e-05
3.49314814e-03 -6.74694060e+00 6.59514694e+00 8.67952953e-04 -8.78992927e-06
3.51830213e-03 -6.74382001e+00 6.59124407e+00 7.70772222e-04 9.60375089e-07
3.54345768e-03 -6.74063780e+00 6.58734988e+00 6.68281677e-04 5.49120435e-06
3.56861458e-03 -6.73756405e+00 6.58346599e+00 6.47837071e-04 2.45103008e-06
3.59377261e-03 -6.73454008e+00 6.57959072e+00 6.40193665e-04 -2.84839426e-06
3.61893156e-03 -6.73151863e+00 6.57572234e+00 6.68957223e-04 -5.91599414e-06
3.64409122e-03 -6.72850127e+00 6.57186121e+00 6.78057661e-04 -1.65983998e-06
3.66925137e-03 -6.72542516e+00 6.56800719e+00 5.78120762e-04 5.80045547e-06
3.69441181e-03 -6.72230153e+00 6.56415895e+00 4.78962558e-04 5.25567443e-06
3.71957231e-03 -6.71922544e+00 6.56031781e+00 4.31611945e-04 6.96983601e-08
3.74473267e-03 -6.71619881e+00 6.55648512e+00 3.82409083e-04 -5.39487685e-08
3.76989268e-03 -6.71317595e+00 6.55266020e+00 3.41428734e-04 1.52589640e-06
3.79505211e-03 -6.71016980e+00 6.54884355e+00 3.28277687e-04 -1.56142686e-06
3.82021077e-03 -6.70720131e+00 6.54503503e+00 3.39342542e-04 -6.08408908e-06
3.84536843e-03 -6.70426001e+00 6.54123323e+00 3.60886349e-04 -6.61209515e-06
3.87052488e-03 -6.70132396e+00 6.53743864e+00 3.80883899e-04 -3.26112703e-06
3.89567992e-03 -6.69836704e+00 6.53365340e+00 3.71907228e-04 5.15153308e-07
3.92083332e-03 -6.69537860e+00 6.52987814e+00 3.20869795e-04 1.83399772e-06
3.94598487e-03 -6.69238814e+00 6.52611190e+00 2.67482304e-04 4.01034732e-07
3.97113437e-03 -6.68943216e+00 6.52235423e+00 2.39105360e-04 -1.56955715e-06
3.99628160e-03 -6.68650538e+00 6.51860535e+00 2.27183190e-04 -2.42503412e-06
4.02142635e-03 -6.68357868e+00 6.51486498e+00 2.09836693e-04 -2.70330557e-06
4.04656840e-03 -6.68064760e+00 6.51113244e+00 1.79398163e-04 -3.34194460e-06
4.07170755e-03 -6.67773656e+00 6.50740723e+00 1.63761210e-04 -4.15185062e-06
4.09684358e-03 -6.67485723e+00 6.50368955e+00 1.72247671e-04 -4.12325482e-06
4.12197628e-03 -6.67198807e+00 6.49997986e+00 1.77836193e-04 -3.21068388e-06
4.14710543e-03 -6.66911057e+00 6.49627844e+00 1.70162879e-04 -2.76582060e-06
4.17223084e-03 -6.66623396e+00 6.49258548e+00 1.58818220e-04 -3.19743245e-06
4.19735227e-03 -6.66336953e+00 6.48890062e+00 1.48775444e-04 -3.49432095e-06
4.22246953e-03 -6.66051521e+00 6.48522368e+00 1.40334067e-04 -3.35969648e-06
4.24758240e-03 -6.65766978e+00 6.48155510e+00 1.34918744e-04 -3.34560685e-06
4.27269067e-03 -6.65483561e+00 6.47789480e+00 1.32930680e-04 -3.46984374e-06
4.29779413e-03 -6.65201006e+00 6.47424235e+00 1.30398480e-04 -3.42834386e-06
4.32289257e-03 -6.64918962e+00 6.47059775e+00 1.25850553e-04 -3.33336155e-06
4.34798577e-03 -6.64637596e+00 6.46696113e+00 1.21274513e-04 -3.35703104e-06
4.37307354e-03 -6.64357103e+00 6.46333257e+00 1.17072391e-04 -3.40198949e-06
4.39815565e-03 -6.64077402e+00 6.45971210e+00 1.13012232e-04 -3.40480611e-06
4.42323189e-03 -6.63798445e+00 6.45609966e+00 1.09069832e-04 -3.41801924e-06
4.44830207e-03 -6.63520278e+00 6.45249513e+00 1.05328171e-04 -3.44021872e-06
4.47336596e-03 -6.63242896e+00 6.44889838e+00 1.01748490e-04 -3.44667248e-06
4.49842336e-03 -6.62966269e+00 6.44530934e+00 9.82999429e-05 -3.45256913e-06
4.52347405e-03 -6.62690402e+00 6.44172796e+00 9.49921100e-05 -3.46690727e-06
4.54851784e-03 -6.62415300e+00 6.43815430e+00 9.18218300e-05 -3.47943484e-06
4.57355450e-03 -6.62140955e+00 6.43458838e+00 8.87737712e-05 -3.48920451e-06
4.59858384e-03 -6.61867362e+00 6.43103025e+00 8.58415252e-05 -3.50200057e-06
4.62360564e-03 -6.61594524e+00 6.42747991e+00 8.30206002e-05 -3.51721001e-06
4.64861970e-03 -6.61322435e+00 6.42393732e+00 8.03029018e-05 -3.53163971e-06
4.67362580e-03 -6.61051090e+00 6.42040242e+00 7.76819333e-05 -3.54374506e-06
4.69862374e-03 -6.60780484e+00 6.41687516e+00 7.51550617e-05 -3.55275755e-06
4.72361332e-03 -6.60510614e+00 6.41335549e+00 7.27199917e-05 -3.55954169e-06
4.74859432e-03 -6.60241475e+00 6.40984335e+00 7.03737535e-05 -3.56635199e-06
