VARIABLES="Y/c","convection","viscous",pressure gradient",Reynolds stress"
0.00000000e+00 0.00000000e+00 5.47629462e+00 3.33786236e+00 -4.43522050e+00
1.20443098e-06 -1.51361151e-02 5.46801077e+00 -6.11416523e+00 7.09595853e-01
2.45397893e-06 -1.96418384e-02 5.46636909e+00 -1.79448754e+01 1.19741485e+01
3.75020532e-06 -5.17154775e-02 5.46691507e+00 -4.30800821e+01 3.85138594e+01
5.09471495e-06 -7.98443415e-02 5.46567982e+00 -7.45076615e+01 6.83664164e+01
6.48915621e-06 -1.28275415e-01 5.46570757e+00 -1.08594538e+02 1.04033211e+02
7.93522119e-06 -1.76239796e-01 5.46457045e+00 -1.38996819e+02 1.33481531e+02
9.43464579e-06 -2.40379544e-01 5.46417800e+00 -1.61500587e+02 1.56803553e+02
1.09892096e-05 -3.11129176e-01 5.46305916e+00 -1.73934711e+02 1.69042569e+02
1.26007355e-05 -4.00138719e-01 5.46233584e+00 -1.76628791e+02 1.72023755e+02
1.42710899e-05 -5.02799989e-01 5.46125439e+00 -1.71150842e+02 1.66674447e+02
1.60021812e-05 -6.23475979e-01 5.46034165e+00 -1.59978259e+02 1.55609047e+02
1.77959599e-05 -7.57214435e-01 5.45936959e+00 -1.45276949e+02 1.41107006e+02
1.96544174e-05 -9.02636849e-01 5.45844092e+00 -1.29142880e+02 1.25058288e+02
2.15795847e-05 -1.05455686e+00 5.45766852e+00 -1.12862637e+02 1.08964840e+02
2.35735311e-05 -1.20917516e+00 5.45686873e+00 -9.75035702e+01 9.37040792e+01
2.56383623e-05 -1.36209556e+00 5.45634655e+00 -8.34857263e+01 7.98415580e+01
2.77762188e-05 -1.50955495e+00 5.45577938e+00 -7.11193798e+01 6.75797233e+01
2.99892734e-05 -1.64944005e+00 5.45558645e+00 -6.03731599e+01 5.69577861e+01
3.22797283e-05 -1.78066193e+00 5.45537886e+00 -5.11926761e+01 4.78781756e+01
3.46498125e-05 -1.90465337e+00 5.45552838e+00 -4.34062404e+01 4.01924074e+01
3.71017779e-05 -2.02306693e+00 5.45556013e+00 -3.68426203e+01 3.37260156e+01
3.96378957e-05 -2.13803100e+00 5.45577755e+00 -3.13364546e+01 2.83103007e+01
4.22604518e-05 -2.24843250e+00 5.45579696e+00 -2.67190564e+01 2.37880997e+01
4.49717421e-05 -2.35167893e+00 5.45594219e+00 -2.28683710e+01 2.00177925e+01
4.77740668e-05 -2.44537808e+00 5.45589861e+00 -1.96417427e+01 1.68729285e+01
5.06697243e-05 -2.52996504e+00 5.45582765e+00 -1.69486161e+01 1.42452786e+01
5.36610047e-05 -2.60505771e+00 5.45540990e+00 -1.46827429e+01 1.20454792e+01
5.67501820e-05 -2.67108187e+00 5.45479817e+00 -1.27857473e+01 1.01998850e+01
5.99395059e-05 -2.73152554e+00 5.45391249e+00 -1.11806173e+01 8.64815991e+00
6.32311933e-05 -2.79077704e+00 5.45299323e+00 -9.82608886e+00 7.34191563e+00
6.66274177e-05 -2.84793935e+00 5.45219216e+00 -8.67470693e+00 6.24192371e+00
7.01302986e-05 -2.90125628e+00 5.45175792e+00 -7.70130301e+00 5.31283787e+00
7.37418900e-05 -2.95433067e+00 5.45171361e+00 -6.86908190e+00 4.52752230e+00
7.74641672e-05 -3.01140333e+00 5.45181047e+00 -6.16239928e+00 3.86996213e+00
8.12990129e-05 -3.06900192e+00 5.45184673e+00 -5.56401783e+00 3.32332168e+00
8.52482019e-05 -3.11934740e+00 5.45162298e+00 -5.06039447e+00 2.86310722e+00
8.93133850e-05 -3.16050659e+00 5.45120316e+00 -4.63248337e+00 2.47252443e+00
9.34960710e-05 -3.19731900e+00 5.45057801e+00 -4.27029347e+00 2.14188145e+00
9.77976101e-05 -3.23804783e+00 5.45001066e+00 -3.95286020e+00 1.85973820e+00
1.02219644e-04 -3.29497811e+00 5.44931624e+00 -3.65693652e+00 1.61806967e+00
1.06764776e-04 -3.37122648e+00 5.44839817e+00 -3.38215768e+00 1.41486926e+00
1.11435898e-04 -3.45688715e+00 5.44705217e+00 -3.13249214e+00 1.24581899e+00
1.16236083e-04 -3.55054810e+00 5.44558804e+00 -2.89480831e+00 1.10122021e+00
1.21168667e-04 -3.64564060e+00 5.44431232e+00 -2.67962235e+00 9.78480799e-01
1.26237261e-04 -3.72070484e+00 5.44369808e+00 -2.50644963e+00 8.75036380e-01
1.31445810e-04 -3.77295521e+00 5.44363667e+00 -2.36454544e+00 7.83380834e-01
1.36798689e-04 -3.80661266e+00 5.44396401e+00 -2.25347649e+00 7.02718600e-01
1.42300737e-04 -3.81374874e+00 5.44458051e+00 -2.18274863e+00 6.33146516e-01
1.47957310e-04 -3.80423830e+00 5.44537534e+00 -2.13303820e+00 5.70662336e-01
1.53774442e-04 -3.79748864e+00 5.44582889e+00 -2.08663279e+00 5.14574479e-01
1.59759004e-04 -3.80178310e+00 5.44571152e+00 -2.03851130e+00 4.67460899e-01
1.65918645e-04 -3.82432781e+00 5.44545681e+00 -1.97957424e+00 4.29563776e-01
1.72261856e-04 -3.86557961e+00 5.44536299e+00 -1.90806617e+00 3.96273383e-01
1.78798522e-04 -3.92156287e+00 5.44529938e+00 -1.82008544e+00 3.62469069e-01
1.85540219e-04 -3.99222558e+00 5.44480263e+00 -1.71734880e+00 3.29868806e-01
1.92499046e-04 -4.06809652e+00 5.44395512e+00 -1.61578160e+00 3.03464354e-01
1.99685651e-04 -4.14645195e+00 5.44276468e+00 -1.51769049e+00 2.82413059e-01
2.07108594e-04 -4.24148865e+00 5.44195396e+00 -1.40374289e+00 2.62682630e-01
2.14775636e-04 -4.33343578e+00 5.44173832e+00 -1.29379983e+00 2.45681931e-01
2.22695133e-04 -4.37652027e+00 5.44220982e+00 -1.24118663e+00 2.32295617e-01
2.30876261e-04 -4.38191126e+00 5.44348683e+00 -1.22329015e+00 2.17271628e-01
2.39328753e-04 -4.39996066e+00 5.44515478e+00 -1.18735576e+00 2.00141241e-01
2.48062896e-04 -4.43594014e+00 5.44616080e+00 -1.13919459e+00 1.84010582e-01
2.57089610e-04 -4.47170767e+00 5.44606193e+00 -1.08673644e+00 1.68114729e-01
2.66420570e-04 -4.50771616e+00 5.44531702e+00 -1.03448375e+00 1.53821926e-01
2.76068628e-04 -4.54230544e+00 5.44416924e+00 -9.91851044e-01 1.42412727e-01
2.86047717e-04 -4.58158543e+00 5.44189192e+00 -9.39219860e-01 1.32036899e-01
2.96371446e-04 -4.63250506e+00 5.43855461e+00 -8.77195739e-01 1.22958248e-01
3.07051441e-04 -4.67601184e+00 5.43544634e+00 -8.27241952e-01 1.15338818e-01
3.18097271e-04 -4.70807524e+00 5.43340973e+00 -7.85541334e-01 1.08993908e-01
3.29517760e-04 -4.75006831e+00 5.43179438e+00 -7.39800637e-01 1.03835966e-01
3.41321927e-04 -4.81714516e+00 5.42916351e+00 -6.65604438e-01 9.65359656e-02
3.53518856e-04 -4.91304770e+00 5.42483515e+00 -5.53016671e-01 8.71513658e-02
3.66117355e-04 -5.01774179e+00 5.42040048e+00 -4.39753465e-01 8.06265646e-02
3.79125945e-04 -5.10872275e+00 5.41770639e+00 -3.45583476e-01 7.65691029e-02
3.92552919e-04 -5.19114048e+00 5.41629404e+00 -2.55637207e-01 7.12524858e-02
4.06406361e-04 -5.27387315e+00 5.41522433e+00 -1.66246875e-01 6.57580009e-02
4.20694236e-04 -5.35651823e+00 5.41399938e+00 -8.06785645e-02 6.21942583e-02
4.35424456e-04 -5.44172381e+00 5.41253121e+00 7.68113380e-03 5.91097239e-02
4.50604776e-04 -5.53587613e+00 5.41083294e+00 1.08279978e-01 5.50196979e-02
4.66242610e-04 -5.63204403e+00 5.40909946e+00 2.09311517e-01 5.08151995e-02
4.82344856e-04 -5.71315114e+00 5.40742009e+00 2.94509674e-01 4.78722585e-02
4.98917882e-04 -5.78108122e+00 5.40680868e+00 3.64300983e-01 4.60455102e-02
5.15967706e-04 -5.84322994e+00 5.40833542e+00 4.25108159e-01 4.32162437e-02
5.33499773e-04 -5.89634423e+00 5.40877062e+00 4.82537760e-01 3.80693409e-02
5.51518242e-04 -5.95254683e+00 5.40596984e+00 5.46675815e-01 3.27490213e-02
5.70025999e-04 -6.03231007e+00 5.40223480e+00 6.30895844e-01 2.99220424e-02
5.89025028e-04 -6.12590169e+00 5.40036358e+00 7.24508039e-01 2.90909612e-02
6.08515585e-04 -6.20852796e+00 5.39913484e+00 8.06807671e-01 2.81172890e-02
6.28496315e-04 -6.28706458e+00 5.39701730e+00 8.87373020e-01 2.62319367e-02
6.48966408e-04 -6.37208133e+00 5.39401304e+00 9.79078068e-01 2.44378086e-02
6.69923786e-04 -6.42626539e+00 5.39095760e+00 1.04056701e+00 2.37767463e-02
6.91361272e-04 -6.42989793e+00 5.38862911e+00 1.04205304e+00 2.28922326e-02
7.13273732e-04 -6.45421115e+00 5.38655896e+00 1.07371384e+00 1.97552033e-02
7.35666183e-04 -6.56300658e+00 5.38315984e+00 1.19647823e+00 1.65924811e-02
7.58538287e-04 -6.70589345e+00 5.37932379e+00 1.33787635e+00 1.74226986e-02
7.81871235e-04 -6.80200336e+00 5.37566420e+00 1.42255303e+00 2.12924266e-02
8.05660411e-04 -6.84881465e+00 5.37185701e+00 1.47092152e+00 2.29384441e-02
8.29937938e-04 -6.88884896e+00 5.36820795e+00 1.52404872e+00 2.01857704e-02
8.54697798e-04 -6.94336281e+00 5.36454286e+00 1.59447366e+00 1.73538019e-02
8.79803256e-04 -7.01054142e+00 5.36162526e+00 1.64161034e+00 1.76520314e-02
9.05041254e-04 -7.08346004e+00 5.35937593e+00 1.72260933e+00 1.90557753e-02
9.30280179e-04 -7.16491462e+00 5.35579614e+00 1.81373146e+00 1.93764872e-02
9.55520418e-04 -7.25807431e+00 5.35001019e+00 1.90802347e+00 1.84096852e-02
9.80798896e-04 -7.33790133e+00 5.34630884e+00 2.01356217e+00 1.72831219e-02
1.00611429e-03 -7.38913048e+00 5.34538249e+00 2.03454075e+00 1.70005933e-02
1.03145030e-03 -7.43641167e+00 5.34245336e+00 2.09105786e+00 1.56283105e-02
1.05680847e-03 -7.49185381e+00 5.33761499e+00 2.16945568e+00 1.33886607e-02
1.08219570e-03 -7.53297971e+00 5.33474861e+00 2.19592862e+00 1.40346630e-02
1.10760982e-03 -7.56077697e+00 5.33289159e+00 2.22375208e+00 1.57462563e-02
1.13304743e-03 -7.60472495e+00 5.32932380e+00 2.27765350e+00 1.54246418e-02
1.15850949e-03 -7.66494081e+00 5.32484487e+00 2.34198280e+00 1.46240225e-02
1.18399658e-03 -7.72546204e+00 5.32024459e+00 2.40144711e+00 1.40322489e-02
1.20950739e-03 -7.79513637e+00 5.31580784e+00 2.47870148e+00 1.26724212e-02
1.23504125e-03 -7.87721637e+00 5.31166783e+00 2.56753280e+00 1.15336710e-02
1.26059819e-03 -7.94651056e+00 5.30733509e+00 2.63638848e+00 1.23130836e-02
1.28617774e-03 -7.98611151e+00 5.30250569e+00 2.67767697e+00 1.42543958e-02
1.31177946e-03 -8.00458894e+00 5.29848079e+00 2.70061239e+00 1.54971708e-02
1.33740324e-03 -8.01714944e+00 5.29517472e+00 2.71659475e+00 1.55963666e-02
1.36304895e-03 -8.04225497e+00 5.29295285e+00 2.74470807e+00 1.53150826e-02
1.38871634e-03 -8.09189791e+00 5.29122073e+00 2.79518388e+00 1.52511061e-02
1.41440522e-03 -8.14406145e+00 5.28813355e+00 2.85051131e+00 1.54202885e-02
1.44011542e-03 -8.16867597e+00 5.28441975e+00 2.87701941e+00 1.55940877e-02
1.46584675e-03 -8.17983243e+00 5.28154638e+00 2.88928261e+00 1.54784487e-02
1.49159900e-03 -8.20656608e+00 5.27880725e+00 2.91904916e+00 1.52011306e-02
1.51737198e-03 -8.23565828e+00 5.27556278e+00 2.95000629e+00 1.53316424e-02
1.54316550e-03 -8.23845999e+00 5.27221625e+00 2.95370192e+00 1.56969764e-02
1.56897936e-03 -8.22271289e+00 5.26918743e+00 2.94125112e+00 1.54731912e-02
1.59481333e-03 -8.21868798e+00 5.26642062e+00 2.94185511e+00 1.47946592e-02
1.62066723e-03 -8.23534126e+00 5.26388145e+00 2.96115714e+00 1.46766030e-02
1.64654083e-03 -8.25068136e+00 5.26128659e+00 2.97694411e+00 1.53147224e-02
1.67243392e-03 -8.24892187e+00 5.25888934e+00 2.97580397e+00 1.58434302e-02
1.69834631e-03 -8.24404521e+00 5.25700762e+00 2.97409719e+00 1.58302144e-02
1.72427777e-03 -8.24650907e+00 5.25515822e+00 2.97738099e+00 1.56745862e-02
1.75022810e-03 -8.24867919e+00 5.25238010e+00 2.97840957e+00 1.55024092e-02
1.77619708e-03 -8.25097852e+00 5.24969573e+00 2.98358698e+00 1.53175249e-02
1.80218451e-03 -8.25421696e+00 5.24801186e+00 2.98642025e+00 1.55766571e-02
1.82819017e-03 -8.24597893e+00 5.24622665e+00 2.97606777e+00 1.62545033e-02
1.85421386e-03 -8.22408455e+00 5.24394858e+00 2.95644881e+00 1.69964977e-02
1.88025539e-03 -8.20075986e+00 5.24180243e+00 2.93395822e+00 1.80176104e-02
1.90631455e-03 -8.18098362e+00 5.23982074e+00 2.91148538e+00 1.90571172e-02
1.93239114e-03 -8.15932559e+00 5.23793171e+00 2.89099001e+00 1.92929736e-02
1.95848495e-03 -8.12900745e+00 5.23651269e+00 2.86249418e+00 1.90506398e-02
1.98459578e-03 -8.09083811e+00 5.23518472e+00 2.82144922e+00 1.91690144e-02
2.01072343e-03 -8.05192133e+00 5.23329568e+00 2.78216061e+00 1.95298541e-02
2.03686769e-03 -8.00998942e+00 5.23102448e+00 2.74228422e+00 2.00211477e-02
2.06302836e-03 -7.95652674e+00 5.22865923e+00 2.68883631e+00 2.09644853e-02
2.08920523e-03 -7.89384869e+00 5.22661160e+00 2.62505210e+00 2.19362895e-02
2.11539810e-03 -7.83061888e+00 5.22502766e+00 2.56202410e+00 2.21992908e-02
2.14160675e-03 -7.76869001e+00 5.22390007e+00 2.50010213e+00 2.20983901e-02
2.16783097e-03 -7.70203684e+00 5.22292151e+00 2.43146434e+00 2.24778209e-02
2.19407057e-03 -7.62353460e+00 5.22195135e+00 2.35047644e+00 2.32215562e-02
2.22032533e-03 -7.53331285e+00 5.22113901e+00 2.25997510e+00 2.36105096e-02
2.24659504e-03 -7.44034846e+00 5.22054962e+00 2.16693579e+00 2.35384881e-02
2.27287949e-03 -7.35364599e+00 5.22007241e+00 2.07943516e+00 2.34205856e-02
2.29917847e-03 -7.27245084e+00 5.21946005e+00 1.99863211e+00 2.35289155e-02
2.32549178e-03 -7.18623440e+00 5.21875666e+00 1.91222682e+00 2.37777128e-02
2.35181919e-03 -7.08716390e+00 5.21809866e+00 1.81255845e+00 2.37452192e-02
2.37816049e-03 -6.98037585e+00 5.21750118e+00 1.70716294e+00 2.32259397e-02
2.40451548e-03 -6.87559670e+00 5.21717105e+00 1.60310703e+00 2.26137745e-02
2.43088394e-03 -6.77611543e+00 5.21716800e+00 1.50234978e+00 2.21428871e-02
2.45726565e-03 -6.68275179e+00 5.21717983e+00 1.40867331e+00 2.14815957e-02
2.48366041e-03 -6.59672361e+00 5.21708803e+00 1.32347544e+00 2.05368664e-02
2.51006800e-03 -6.51441672e+00 5.21692860e+00 1.24168357e+00 1.97498326e-02
2.53648820e-03 -6.42995861e+00 5.21685072e+00 1.15632233e+00 1.92859189e-02
2.56292081e-03 -6.34437395e+00 5.21684711e+00 1.07024348e+00 1.86985906e-02
2.58936560e-03 -6.26408563e+00 5.21691206e+00 9.91175462e-01 1.77165459e-02
2.61582236e-03 -6.19069179e+00 5.21695263e+00 9.18859959e-01 1.66870029e-02
2.64229088e-03 -6.12011472e+00 5.21696199e+00 8.48453392e-01 1.59158175e-02
2.66877093e-03 -6.05073599e+00 5.21694902e+00 7.79325003e-01 1.52175990e-02
2.69526232e-03 -5.98506362e+00 5.21692705e+00 7.14251543e-01 1.43492069e-02
2.72176480e-03 -5.92462918e+00 5.21696471e+00 6.54193414e-01 1.33805830e-02
2.74827818e-03 -5.86874925e+00 5.21711553e+00 5.98417284e-01 1.25061396e-02
2.77480222e-03 -5.81650305e+00 5.21730249e+00 5.46114159e-01 1.17569441e-02
2.80133672e-03 -5.76668234e+00 5.21744083e+00 4.96290865e-01 1.09801449e-02
2.82788146e-03 -5.71859641e+00 5.21748787e+00 4.48712385e-01 1.00674165e-02
2.85443621e-03 -5.67390750e+00 5.21743084e+00 4.04727366e-01 9.13501999e-03
2.88100076e-03 -5.63426607e+00 5.21731181e+00 3.65409044e-01 8.37155468e-03
2.90757489e-03 -5.59832569e+00 5.21716854e+00 3.29476091e-01 7.78016168e-03
2.93415837e-03 -5.56420732e+00 5.21701066e+00 2.95717343e-01 7.22912425e-03
2.96075100e-03 -5.53213682e+00 5.21684357e+00 2.64228164e-01 6.66003355e-03
2.98735254e-03 -5.50325248e+00 5.21668209e+00 2.35641843e-01 6.07564169e-03
3.01396278e-03 -5.47844513e+00 5.21646185e+00 2.11457845e-01 5.46314555e-03
3.04058150e-03 -5.45738609e+00 5.21616750e+00 1.91198422e-01 4.85666656e-03
3.06720848e-03 -5.43826399e+00 5.21587858e+00 1.72341681e-01 4.31030541e-03
3.09384349e-03 -5.42032053e+00 5.21558369e+00 1.54788237e-01 3.82884055e-03
3.12048631e-03 -5.40419373e+00 5.21519377e+00 1.39275171e-01 3.44430160e-03
3.14713672e-03 -5.38923628e+00 5.21473369e+00 1.24442601e-01 3.17452716e-03
3.17379451e-03 -5.37459788e+00 5.21426235e+00 1.10002748e-01 2.90939355e-03
3.20045944e-03 -5.36152302e+00 5.21374743e+00 9.76273834e-02 2.57173012e-03
3.22713129e-03 -5.35109052e+00 5.21316768e+00 8.78200217e-02 2.26593527e-03
3.25380984e-03 -5.34191822e+00 5.21254162e+00 7.89945381e-02 2.09536494e-03
3.28049487e-03 -5.33205028e+00 5.21190211e+00 6.93745708e-02 1.98109638e-03
3.30718616e-03 -5.32167693e+00 5.21124526e+00 5.94654832e-02 1.77540851e-03
3.33388348e-03 -5.31281221e+00 5.21054964e+00 5.13289450e-02 1.47386898e-03
3.36058660e-03 -5.30638874e+00 5.20982223e+00 4.56083284e-02 1.21884584e-03
3.38729531e-03 -5.30096189e+00 5.20908116e+00 4.05684260e-02 1.09436272e-03
3.41400937e-03 -5.29514756e+00 5.20832194e+00 3.51282877e-02 1.02281455e-03
3.44072857e-03 -5.28947570e+00 5.20753040e+00 3.01851030e-02 9.16867147e-04
3.46745268e-03 -5.28454079e+00 5.20671123e+00 2.58883267e-02 7.96327334e-04
3.49418148e-03 -5.27978125e+00 5.20586367e+00 2.16059737e-02 6.88175985e-04
3.52091474e-03 -5.27510044e+00 5.20498262e+00 1.76542787e-02 5.73140445e-04
3.54765223e-03 -5.27127940e+00 5.20408075e+00 1.45938443e-02 4.59851509e-04
3.57439373e-03 -5.26856344e+00 5.20317520e+00 1.24698705e-02 3.75794743e-04
3.60113902e-03 -5.26644842e+00 5.20227041e+00 1.10103350e-02 3.20319987e-04
3.62788787e-03 -5.26451936e+00 5.20134744e+00 9.76548105e-03 2.88709979e-04
3.65464005e-03 -5.26270771e+00 5.20038017e+00 8.57785388e-03 2.79267364e-04
3.68139535e-03 -5.26099635e+00 5.19936765e+00 7.56532537e-03 2.66727630e-04
3.70815352e-03 -5.25923395e+00 5.19832771e+00 6.54481985e-03 2.35925048e-04
3.73491435e-03 -5.25732915e+00 5.19727475e+00 5.40596110e-03 2.07618128e-04
3.76167762e-03 -5.25549223e+00 5.19621477e+00 4.36475098e-03 1.79593851e-04
3.78844309e-03 -5.25404559e+00 5.19514881e+00 3.73026618e-03 1.31470339e-04
3.81521054e-03 -5.25299857e+00 5.19406938e+00 3.52619536e-03 8.09454975e-05
3.84197974e-03 -5.25203835e+00 5.19297565e+00 3.37042918e-03 6.09803359e-05
3.86875047e-03 -5.25089767e+00 5.19187682e+00 2.98837627e-03 7.34633874e-05
3.89552250e-03 -5.24958145e+00 5.19077381e+00 2.44132246e-03 8.70198864e-05
3.92229560e-03 -5.24830207e+00 5.18966562e+00 1.99059229e-03 7.42004295e-05
3.94906955e-03 -5.24726141e+00 5.18855259e+00 1.80284836e-03 4.13648321e-05
3.97584413e-03 -5.24646430e+00 5.18743484e+00 1.85081971e-03 1.51804114e-05
4.00261910e-03 -5.24573394e+00 5.18631044e+00 1.93656721e-03 1.13465719e-05
4.02939424e-03 -5.24488541e+00 5.18517794e+00 1.90245901e-03 2.24180757e-05
4.05616932e-03 -5.24385982e+00 5.18403636e+00 1.71515107e-03 3.18517528e-05
4.08294411e-03 -5.24273659e+00 5.18288683e+00 1.44093183e-03 3.03839407e-05
4.10971840e-03 -5.24165844e+00 5.18173119e+00 1.23349501e-03 1.97895603e-05
4.13649195e-03 -5.24069510e+00 5.18057192e+00 1.15344047e-03 8.71079670e-06
4.16326454e-03 -5.23979730e+00 5.17941141e+00 1.11091516e-03 2.62470188e-06
4.19003594e-03 -5.23891793e+00 5.17824752e+00 1.10272111e-03 -5.33607672e-07
4.21680592e-03 -5.23805453e+00 5.17707891e+00 1.12853698e-03 -1.30125047e-06
4.24357426e-03 -5.23716273e+00 5.17590762e+00 1.10042951e-03 2.74657757e-06
4.27034073e-03 -5.23618443e+00 5.17473423e+00 9.94040045e-04 9.24208325e-06
4.29710511e-03 -5.23513798e+00 5.17355803e+00 8.33481273e-04 1.32849956e-05
4.32386717e-03 -5.23409767e+00 5.17237901e+00 6.76640913e-04 1.23859434e-05
4.35062668e-03 -5.23313027e+00 5.17119711e+00 6.07411099e-04 6.54925168e-06
4.37738342e-03 -5.23225277e+00 5.17001263e+00 6.35411642e-04 -7.07906080e-07
4.40413716e-03 -5.23141786e+00 5.16882609e+00 7.00667432e-04 -4.18687820e-06
4.43088768e-03 -5.23055622e+00 5.16763806e+00 7.36413580e-04 -2.37549150e-06
4.45763475e-03 -5.22963610e+00 5.16644902e+00 7.09976871e-04 9.91553825e-07
4.48437815e-03 -5.22868072e+00 5.16525838e+00 6.59438379e-04 1.19657805e-06
4.51111764e-03 -5.22773264e+00 5.16406497e+00 6.23562993e-04 -2.67158462e-06
4.53785301e-03 -5.22681077e+00 5.16286888e+00 6.13034930e-04 -8.04586648e-06
4.56458403e-03 -5.22590947e+00 5.16167151e+00 6.29596268e-04 -1.13556141e-05
4.59131047e-03 -5.22501185e+00 5.16047307e+00 6.44410887e-04 -9.85957149e-06
4.61803212e-03 -5.22409876e+00 5.15927251e+00 6.37028458e-04 -4.69408983e-06
4.64474874e-03 -5.22316745e+00 5.15806932e+00 6.20671499e-04 -5.17121902e-07
4.67146011e-03 -5.22223522e+00 5.15686459e+00 6.09323667e-04 -2.89652391e-07
4.69816601e-03 -5.22131972e+00 5.15565981e+00 6.16791083e-04 -2.59711255e-06
4.72486621e-03 -5.22041694e+00 5.15445495e+00 6.39104024e-04 -3.60935346e-06
4.75156048e-03 -5.21949830e+00 5.15324960e+00 6.38174232e-04 -1.18850932e-06
4.77824862e-03 -5.21854186e+00 5.15204389e+00 5.97094445e-04 2.28212449e-06
4.80493038e-03 -5.21756052e+00 5.15083782e+00 5.39040151e-04 2.87231283e-06
4.83160556e-03 -5.21658339e+00 5.14963127e+00 4.90824223e-04 4.80575928e-07
4.85827392e-03 -5.21562149e+00 5.14842406e+00 4.55959451e-04 -1.37435768e-06
4.88493524e-03 -5.21466291e+00 5.14721600e+00 4.20417029e-04 -4.21617212e-07
4.91158930e-03 -5.21369209e+00 5.14600717e+00 3.73080798e-04 1.95176548e-06
4.93823588e-03 -5.21270847e+00 5.14479786e+00 3.15222185e-04 2.84482290e-06
4.96487475e-03 -5.21172993e+00 5.14358812e+00 2.66879833e-04 1.11175042e-06
4.99150570e-03 -5.21077476e+00 5.14237784e+00 2.45034241e-04 -1.53342578e-06
5.01812850e-03 -5.20983878e+00 5.14116703e+00 2.38885531e-04 -2.73352766e-06
5.04474294e-03 -5.20890192e+00 5.13995571e+00 2.29567316e-04 -2.40420862e-06
