VARIABLES="Y/c","convection","viscous",pressure gradient",Reynolds stress"
0.00000000e+00 0.00000000e+00 1.27941025e+00 6.28144804e-01 -1.18128689e+00
1.74152823e-06 -2.31311324e-03 1.28081319e+00 -1.11969713e+00 -1.99395136e-01
3.55080067e-06 -7.57334939e-03 1.28080112e+00 -3.30328122e+00 1.92789006e+00
5.43037453e-06 -1.71058123e-02 1.28050324e+00 -8.02958712e+00 6.93217284e+00
7.38289725e-06 -2.95022766e-02 1.28032878e+00 -1.40729748e+01 1.26564782e+01
9.41110916e-06 -4.54629097e-02 1.27998818e+00 -2.08763976e+01 1.97763443e+01
1.15178462e-05 -6.41018302e-02 1.27973373e+00 -2.73220000e+01 2.60429197e+01
1.37060425e-05 -8.56208446e-02 1.27940620e+00 -3.25863034e+01 3.14514902e+01
1.59787336e-05 -1.09091547e-01 1.27916653e+00 -3.61405664e+01 3.49830495e+01
1.83390585e-05 -1.33878804e-01 1.27893849e+00 -3.78649375e+01 3.67542068e+01
2.07902631e-05 -1.58708505e-01 1.27882641e+00 -3.78974457e+01 3.68159129e+01
2.33357027e-05 -1.82635215e-01 1.27881458e+00 -3.65823279e+01 3.55196480e+01
2.59788450e-05 -2.04790995e-01 1.27895149e+00 -3.42843844e+01 3.32520376e+01
2.87232726e-05 -2.24780064e-01 1.27924232e+00 -3.13920025e+01 3.03717741e+01
3.15726861e-05 -2.42376385e-01 1.27966628e+00 -2.82014266e+01 2.72018856e+01
3.45309067e-05 -2.57418886e-01 1.28020888e+00 -2.49679893e+01 2.39771157e+01
3.76018789e-05 -2.69592307e-01 1.28078503e+00 -2.18501554e+01 2.08709131e+01
4.07896736e-05 -2.78349581e-01 1.28135367e+00 -1.89637325e+01 1.79886348e+01
4.40984901e-05 -2.82978002e-01 1.28180053e+00 -1.63600533e+01 1.53877559e+01
4.75326590e-05 -2.82873067e-01 1.28208787e+00 -1.40631220e+01 1.30879324e+01
5.10966449e-05 -2.78353154e-01 1.28212709e+00 -1.20664493e+01 1.10849855e+01
5.47950484e-05 -2.71281460e-01 1.28192237e+00 -1.03502601e+01 9.36052384e+00
5.86326086e-05 -2.64834792e-01 1.28145139e+00 -8.88596444e+00 7.88864013e+00
6.26142050e-05 -2.62146315e-01 1.28078018e+00 -7.64028157e+00 6.64054385e+00
6.67448599e-05 -2.65082368e-01 1.27994164e+00 -6.58458289e+00 5.58739460e+00
7.10297398e-05 -2.73603977e-01 1.27900499e+00 -5.68935945e+00 4.70149976e+00
7.54741572e-05 -2.86107742e-01 1.27799479e+00 -4.93294849e+00 3.95746875e+00
8.00835719e-05 -3.00487156e-01 1.27698013e+00 -4.29374022e+00 3.33369028e+00
8.48635921e-05 -3.15053451e-01 1.27603798e+00 -3.75766040e+00 2.81228236e+00
8.98199754e-05 -3.28660535e-01 1.27527854e+00 -3.30814217e+00 2.37698014e+00
9.49586292e-05 -3.40612479e-01 1.27478062e+00 -2.93163894e+00 2.01235792e+00
1.00285611e-04 -3.50156318e-01 1.27458909e+00 -2.61485592e+00 1.70538612e+00
1.05807128e-04 -3.56366120e-01 1.27465664e+00 -2.35046295e+00 1.44651884e+00
1.11529536e-04 -3.59191969e-01 1.27485346e+00 -2.13100560e+00 1.22954455e+00
1.17459341e-04 -3.59453155e-01 1.27497100e+00 -1.95102970e+00 1.04949441e+00
1.23603194e-04 -3.57866134e-01 1.27482471e+00 -1.80274307e+00 8.99573005e-01
1.29967889e-04 -3.56296454e-01 1.27434017e+00 -1.67683929e+00 7.71932968e-01
1.36560366e-04 -3.57980182e-01 1.27366932e+00 -1.56507773e+00 6.62138768e-01
1.43387701e-04 -3.64162694e-01 1.27303375e+00 -1.46613084e+00 5.69494263e-01
1.50457104e-04 -3.73081961e-01 1.27258187e+00 -1.38059816e+00 4.92356458e-01
1.57776011e-04 -3.81816204e-01 1.27239162e+00 -1.30615849e+00 4.26739271e-01
1.65352205e-04 -3.87214483e-01 1.27267166e+00 -1.24368103e+00 3.69287438e-01
1.73193681e-04 -3.89555475e-01 1.27368355e+00 -1.19234380e+00 3.18735342e-01
1.81308634e-04 -3.92939880e-01 1.27553222e+00 -1.14789766e+00 2.76218012e-01
1.89705461e-04 -3.95739547e-01 1.27803322e+00 -1.11524878e+00 2.43369501e-01
1.98392768e-04 -3.90588145e-01 1.28091425e+00 -1.09854514e+00 2.18026889e-01
2.07379374e-04 -3.76246548e-01 1.28393973e+00 -1.09312543e+00 1.96118512e-01
2.16674319e-04 -3.58868390e-01 1.28682655e+00 -1.09344202e+00 1.76080594e-01
2.26286872e-04 -3.45841099e-01 1.28932647e+00 -1.09124178e+00 1.57588449e-01
2.36226537e-04 -3.41430824e-01 1.29151861e+00 -1.08080093e+00 1.40274530e-01
2.46503068e-04 -3.43528183e-01 1.29384888e+00 -1.06595597e+00 1.25032442e-01
2.57126479e-04 -3.45429358e-01 1.29665086e+00 -1.05483309e+00 1.13254269e-01
2.68107053e-04 -3.42493292e-01 1.30004881e+00 -1.05307157e+00 1.04045853e-01
2.79455354e-04 -3.40640591e-01 1.30378011e+00 -1.04958519e+00 9.48808246e-02
2.91182255e-04 -3.51224775e-01 1.30747500e+00 -1.03231206e+00 8.55555761e-02
3.03298967e-04 -3.73145334e-01 1.31095006e+00 -1.00635873e+00 7.79213793e-02
3.15817014e-04 -3.94821448e-01 1.31395860e+00 -9.81876953e-01 7.24672891e-02
3.28748185e-04 -4.08930819e-01 1.31632436e+00 -9.65819727e-01 6.78448650e-02
3.42104546e-04 -4.15841453e-01 1.31809470e+00 -9.55711917e-01 6.26245929e-02
3.55898509e-04 -4.22644749e-01 1.31930882e+00 -9.43551595e-01 5.68988012e-02
3.70142879e-04 -4.36334556e-01 1.32024449e+00 -9.25668384e-01 5.17652088e-02
3.84850883e-04 -4.56252476e-01 1.32161612e+00 -9.03383681e-01 4.75229402e-02
4.00036251e-04 -4.77081837e-01 1.32395755e+00 -8.81141479e-01 4.41243695e-02
4.15713247e-04 -4.92589539e-01 1.32659253e+00 -8.66244689e-01 4.21004399e-02
4.31896599e-04 -4.99300554e-01 1.32848632e+00 -8.62043690e-01 4.10871568e-02
4.48601578e-04 -5.00553338e-01 1.32955637e+00 -8.60640620e-01 3.94028507e-02
4.65844333e-04 -5.03936561e-01 1.33026490e+00 -8.55035577e-01 3.61371748e-02
4.83641815e-04 -5.15805933e-01 1.33129152e+00 -8.40932965e-01 3.21784081e-02
5.02010794e-04 -5.33323632e-01 1.33304271e+00 -8.21460637e-01 2.94168859e-02
5.20966748e-04 -5.43928210e-01 1.33477506e+00 -8.12966953e-01 2.86140974e-02
5.40523821e-04 -5.43256389e-01 1.33617584e+00 -8.17252009e-01 2.78546258e-02
5.60695715e-04 -5.42940586e-01 1.33776119e+00 -8.15611946e-01 2.53657783e-02
5.81496328e-04 -5.49844822e-01 1.33962222e+00 -8.06254536e-01 2.24161227e-02
6.02939655e-04 -5.56685794e-01 1.34129057e+00 -8.01297777e-01 2.06413237e-02
6.25039548e-04 -5.61895688e-01 1.34204594e+00 -7.96736158e-01 1.94374636e-02
6.47809739e-04 -5.72018600e-01 1.34201669e+00 -7.83746537e-01 1.79085094e-02
6.71263918e-04 -5.85382910e-01 1.34211653e+00 -7.68830185e-01 1.62813150e-02
6.95415652e-04 -6.00160191e-01 1.34240916e+00 -7.53723773e-01 1.46971649e-02
7.20278245e-04 -6.19062654e-01 1.34284467e+00 -7.31542031e-01 1.31106650e-02
7.45864669e-04 -6.34694090e-01 1.34357664e+00 -7.14229899e-01 1.19730921e-02
7.72187627e-04 -6.41770707e-01 1.34404601e+00 -7.08207441e-01 1.13386782e-02
7.99259593e-04 -6.51499434e-01 1.34363899e+00 -6.97182385e-01 1.05403408e-02
8.27092608e-04 -6.66785851e-01 1.34246461e+00 -6.78563335e-01 9.45704226e-03
8.55698245e-04 -6.72460282e-01 1.34158476e+00 -6.72586053e-01 8.64162136e-03
8.85088052e-04 -6.66137218e-01 1.34170250e+00 -6.80089594e-01 8.35771139e-03
9.15273147e-04 -6.63823548e-01 1.34230170e+00 -6.82827567e-01 8.50570092e-03
9.46262664e-04 -6.68944051e-01 1.34295722e+00 -6.80958031e-01 8.76972881e-03
9.78063595e-04 -6.69209364e-01 1.34460227e+00 -6.83583954e-01 8.62955247e-03
1.01068168e-03 -6.60509502e-01 1.34714071e+00 -6.93920851e-01 7.86700128e-03
1.04412018e-03 -6.49850525e-01 1.34923137e+00 -7.09206737e-01 6.64549424e-03
1.07838008e-03 -6.47003910e-01 1.35036388e+00 -7.11442255e-01 5.42699842e-03
1.11346423e-03 -6.59094807e-01 1.35168337e+00 -6.96115155e-01 4.97063535e-03
1.14937451e-03 -6.77306044e-01 1.35444896e+00 -6.84395258e-01 5.12280654e-03
1.18610400e-03 -6.82833256e-01 1.35656320e+00 -6.81793170e-01 4.66350331e-03
1.22364730e-03 -6.76010777e-01 1.35680381e+00 -6.83214767e-01 3.48714073e-03
1.26201418e-03 -6.73602066e-01 1.35579413e+00 -6.82070284e-01 2.81456692e-03
1.30120432e-03 -6.78293394e-01 1.35419238e+00 -6.79139086e-01 2.87633999e-03
1.34118513e-03 -6.81491917e-01 1.35284984e+00 -6.78831261e-01 2.65321535e-03
1.38194783e-03 -6.87338511e-01 1.35272049e+00 -6.66346803e-01 2.02686799e-03
1.42354817e-03 -6.99791366e-01 1.35348429e+00 -6.48767860e-01 2.21451441e-03
1.46597944e-03 -7.06322179e-01 1.35441421e+00 -6.50123919e-01 3.41155062e-03
1.50901123e-03 -7.06368114e-01 1.35464198e+00 -6.64185225e-01 3.94093367e-03
1.55227896e-03 -7.20149510e-01 1.35360722e+00 -6.40434940e-01 2.90857116e-03
1.59555516e-03 -7.54024045e-01 1.35220424e+00 -5.99625439e-01 1.76142510e-03
1.63883947e-03 -7.96611595e-01 1.35288559e+00 -5.63706729e-01 1.61902031e-03
1.68219576e-03 -8.40156540e-01 1.35490851e+00 -5.13296078e-01 1.39686062e-03
1.72562221e-03 -8.67465982e-01 1.35552455e+00 -4.97349424e-01 5.97244732e-04
1.76909065e-03 -8.68226930e-01 1.35528792e+00 -4.98860000e-01 -6.26697522e-05
1.81260353e-03 -8.67083193e-01 1.35485122e+00 -4.92235594e-01 -3.36181231e-04
1.85617278e-03 -8.82654256e-01 1.35449089e+00 -4.76731603e-01 2.26120361e-04
1.89979463e-03 -8.99450004e-01 1.35453732e+00 -4.61376501e-01 1.38394569e-03
1.94346300e-03 -8.98458189e-01 1.35415136e+00 -4.63732200e-01 1.74871996e-03
1.98717937e-03 -8.88557125e-01 1.35261863e+00 -4.66938645e-01 9.38249985e-04
2.03094463e-03 -8.90590351e-01 1.35139344e+00 -4.62779955e-01 2.22254951e-04
2.07475636e-03 -9.04800270e-01 1.35070972e+00 -4.51019026e-01 6.31575985e-04
2.11861327e-03 -9.15225053e-01 1.34902156e+00 -4.44874809e-01 1.38230114e-03
2.16251521e-03 -9.22337871e-01 1.34772887e+00 -4.36531699e-01 1.14853619e-03
2.20646130e-03 -9.44138651e-01 1.34769704e+00 -4.08205444e-01 1.47409232e-04
2.25045068e-03 -9.79134318e-01 1.34836931e+00 -3.76758359e-01 -4.32314368e-04
2.29448317e-03 -1.00190975e+00 1.34855516e+00 -3.60007325e-01 -4.50934719e-04
2.33855854e-03 -1.00350785e+00 1.34800034e+00 -3.55359277e-01 -4.39213995e-04
2.38267636e-03 -9.99965170e-01 1.34718189e+00 -3.58141025e-01 -3.22337291e-04
2.42683629e-03 -1.00086470e+00 1.34610473e+00 -3.63001030e-01 -1.54580721e-04
2.47103803e-03 -1.00576535e+00 1.34517890e+00 -3.58724621e-01 -4.76703574e-04
2.51528123e-03 -1.02150940e+00 1.34516423e+00 -3.37776119e-01 -1.03810927e-03
2.55956554e-03 -1.05278759e+00 1.34529402e+00 -3.10049825e-01 -1.03231474e-03
2.60389062e-03 -1.09038803e+00 1.34451921e+00 -2.76183113e-01 -5.37637183e-04
2.64825614e-03 -1.11868917e+00 1.34385146e+00 -2.42572535e-01 3.82091984e-05
2.69266173e-03 -1.12563701e+00 1.34451556e+00 -2.35947672e-01 7.98081564e-04
2.73710705e-03 -1.11897998e+00 1.34598601e+00 -2.47211286e-01 1.42713979e-03
2.78159174e-03 -1.12555588e+00 1.34688578e+00 -2.36893161e-01 1.21853476e-03
2.82611545e-03 -1.15253726e+00 1.34751572e+00 -2.06448432e-01 3.63029288e-04
2.87067782e-03 -1.17691866e+00 1.34710193e+00 -1.82489010e-01 -2.97944500e-04
2.91527849e-03 -1.18627023e+00 1.34542276e+00 -1.71415264e-01 -3.89964312e-04
2.95991710e-03 -1.19187219e+00 1.34465537e+00 -1.63747669e-01 -1.10540029e-04
3.00459330e-03 -1.20317890e+00 1.34543211e+00 -1.54184778e-01 1.29966721e-04
3.04930672e-03 -1.21943848e+00 1.34623655e+00 -1.39819289e-01 4.27618319e-05
3.09405700e-03 -1.23577822e+00 1.34658362e+00 -1.22421981e-01 -6.77597960e-05
3.13884379e-03 -1.24434588e+00 1.34696336e+00 -1.15408837e-01 3.85614472e-04
3.18366675e-03 -1.24372592e+00 1.34701979e+00 -1.21604801e-01 1.14222746e-03
3.22852555e-03 -1.24856207e+00 1.34641698e+00 -1.16480343e-01 1.24149647e-03
3.27341985e-03 -1.27309748e+00 1.34524479e+00 -8.74350557e-02 5.40898923e-04
3.31834932e-03 -1.30660547e+00 1.34450389e+00 -5.16282985e-02 -7.25351666e-05
3.36331360e-03 -1.32214482e+00 1.34412519e+00 -3.78884457e-02 -1.52553686e-04
3.40831236e-03 -1.31043355e+00 1.34370721e+00 -5.18684346e-02 -2.46222693e-04
3.45334526e-03 -1.29208131e+00 1.34442969e+00 -6.54323444e-02 -5.70776553e-04
3.49841195e-03 -1.29050207e+00 1.34613507e+00 -6.87113360e-02 -5.03376917e-04
3.54351208e-03 -1.30465561e+00 1.34795622e+00 -6.29928107e-02 2.66872480e-06
3.58864532e-03 -1.32164437e+00 1.34883925e+00 -4.31437739e-02 3.05409495e-04
3.63381132e-03 -1.34097941e+00 1.34793469e+00 -2.13100345e-02 3.16007225e-04
3.67900972e-03 -1.36583759e+00 1.34597471e+00 1.25379309e-03 1.72096413e-04
3.72424017e-03 -1.38368332e+00 1.34445726e+00 2.35947055e-02 -1.87883589e-04
3.76950233e-03 -1.37853588e+00 1.34418191e+00 2.13039019e-02 -4.57167903e-04
3.81479584e-03 -1.35683642e+00 1.34449253e+00 -1.47199069e-03 -3.00874454e-04
3.86012035e-03 -1.34403308e+00 1.34425901e+00 -1.27180815e-02 8.70776868e-05
3.90547550e-03 -1.35642879e+00 1.34375307e+00 -2.55783659e-04 3.38569217e-04
3.95086095e-03 -1.38555850e+00 1.34415671e+00 2.85639869e-02 3.03798712e-04
3.99627632e-03 -1.40925931e+00 1.34477995e+00 5.37963204e-02 1.34318645e-04
4.04172127e-03 -1.41427350e+00 1.34479341e+00 5.95514547e-02 6.42875148e-05
4.08719543e-03 -1.41155041e+00 1.34438526e+00 5.79522533e-02 8.64869614e-05
4.13269846e-03 -1.42186477e+00 1.34349465e+00 6.98182721e-02 8.69278463e-05
4.17822998e-03 -1.44151594e+00 1.34267227e+00 9.09094657e-02 2.04106721e-04
4.22378963e-03 -1.44693683e+00 1.34140185e+00 9.83453626e-02 6.91138090e-04
4.26937706e-03 -1.43359231e+00 1.33980572e+00 8.43772470e-02 1.28181798e-03
4.31499190e-03 -1.42171337e+00 1.33802668e+00 7.50858440e-02 1.18934128e-03
4.36063380e-03 -1.43117081e+00 1.33705093e+00 8.89789407e-02 1.75507378e-04
4.40630237e-03 -1.46342925e+00 1.33751091e+00 1.26099991e-01 -8.47171385e-04
4.45199727e-03 -1.49890632e+00 1.33817552e+00 1.63037702e-01 -8.49368614e-04
4.49771813e-03 -1.51869956e+00 1.33799193e+00 1.79272186e-01 -1.24462675e-04
4.54346458e-03 -1.52763173e+00 1.33758261e+00 1.91481298e-01 2.11155761e-04
4.58923625e-03 -1.53881059e+00 1.33703752e+00 2.09250658e-01 2.77144207e-05
4.63503278e-03 -1.54948818e+00 1.33721965e+00 2.18315064e-01 7.32533593e-05
4.68085380e-03 -1.55221861e+00 1.33888998e+00 2.16678302e-01 4.48710873e-04
4.72669894e-03 -1.55234665e+00 1.33957721e+00 2.17211238e-01 6.40078907e-04
4.77256782e-03 -1.55998449e+00 1.33794719e+00 2.28140761e-01 5.07005554e-04
4.81846008e-03 -1.57799287e+00 1.33580299e+00 2.49791865e-01 3.25705420e-04
4.86437535e-03 -1.60205050e+00 1.33449497e+00 2.77774110e-01 3.09199806e-04
4.91031325e-03 -1.62657472e+00 1.33378914e+00 3.04849926e-01 4.18709550e-04
4.95627342e-03 -1.64820668e+00 1.33264629e+00 3.28773755e-01 5.09560347e-04
5.00225546e-03 -1.66196853e+00 1.33106283e+00 3.47468011e-01 6.95495418e-04
5.04825902e-03 -1.66216618e+00 1.32988654e+00 3.48470906e-01 1.15672503e-03
5.09428372e-03 -1.65595598e+00 1.33073139e+00 3.36189277e-01 1.36482828e-03
5.14032917e-03 -1.66372931e+00 1.33310194e+00 3.42827967e-01 5.89352491e-04
5.18639501e-03 -1.69290387e+00 1.33395579e+00 3.77240232e-01 -5.83071027e-04
5.23248085e-03 -1.72608895e+00 1.33253334e+00 4.12112405e-01 -7.64935616e-04
5.27858633e-03 -1.74610315e+00 1.33157469e+00 4.29529990e-01 8.93798119e-05
5.32471104e-03 -1.75495671e+00 1.33174547e+00 4.38269807e-01 5.78967095e-04
5.37085463e-03 -1.76338019e+00 1.33182676e+00 4.50782126e-01 -3.69584277e-05
5.41701671e-03 -1.77811204e+00 1.33148781e+00 4.70159907e-01 -8.10529926e-04
5.46319689e-03 -1.79921911e+00 1.33100786e+00 4.91258725e-01 -5.11568232e-04
5.50939480e-03 -1.82085458e+00 1.33097097e+00 5.07271053e-01 6.08446732e-04
5.55561006e-03 -1.83759713e+00 1.33137685e+00 5.21821616e-01 1.21634861e-03
5.60184228e-03 -1.84868284e+00 1.33153063e+00 5.36168733e-01 8.23858223e-04
5.64809107e-03 -1.85069692e+00 1.33100368e+00 5.39159261e-01 2.21752014e-04
5.69435607e-03 -1.84100562e+00 1.33011990e+00 5.27742551e-01 3.33888654e-05
5.74063687e-03 -1.83215106e+00 1.32928739e+00 5.18809131e-01 3.10544681e-05
5.78693310e-03 -1.83525430e+00 1.32904265e+00 5.25498298e-01 3.63999940e-05
5.83324437e-03 -1.83842236e+00 1.32937552e+00 5.28857760e-01 3.38817669e-04
5.87957029e-03 -1.83374967e+00 1.32952705e+00 5.19046298e-01 8.20773591e-04
5.92591049e-03 -1.84012432e+00 1.32876573e+00 5.26288581e-01 8.44265912e-04
5.97226457e-03 -1.87055874e+00 1.32695997e+00 5.62487267e-01 4.09024362e-04
6.01863214e-03 -1.90608240e+00 1.32534088e+00 5.99439238e-01 1.85042231e-04
6.06501282e-03 -1.92419783e+00 1.32424957e+00 6.14783169e-01 3.05197246e-04
6.11140622e-03 -1.93026929e+00 1.32393985e+00 6.21164780e-01 3.24488979e-04
6.15781195e-03 -1.94181841e+00 1.32353637e+00 6.33017682e-01 1.97296264e-04
6.20422963e-03 -1.96283723e+00 1.32308728e+00 6.52804460e-01 2.99813163e-04
6.25065885e-03 -1.99170289e+00 1.32196955e+00 6.77015814e-01 6.53395105e-04
6.29709925e-03 -2.02842786e+00 1.32023801e+00 7.14556125e-01 9.42187006e-04
6.34355041e-03 -2.06094197e+00 1.31969420e+00 7.47335944e-01 1.09171985e-03
6.39001196e-03 -2.07282761e+00 1.31958252e+00 7.54822212e-01 1.10903170e-03
6.43648350e-03 -2.06764821e+00 1.31990614e+00 7.52740837e-01 8.92066455e-04
6.48296464e-03 -2.06048641e+00 1.32008345e+00 7.41740842e-01 6.53020994e-04
6.52945499e-03 -2.05394478e+00 1.31961716e+00 7.34440882e-01 6.85952495e-04
6.57595416e-03 -2.04295662e+00 1.31846976e+00 7.23282723e-01 8.96212876e-04
6.62246175e-03 -2.03218350e+00 1.31791164e+00 7.12966244e-01 1.11774634e-03
6.66897738e-03 -2.03411263e+00 1.31721465e+00 7.17150583e-01 1.34662836e-03
6.71550065e-03 -2.05422459e+00 1.31633270e+00 7.33660777e-01 1.44720657e-03
6.76203117e-03 -2.08479786e+00 1.31608457e+00 7.64277674e-01 1.16164090e-03
6.80856854e-03 -2.11002431e+00 1.31589896e+00 7.91171335e-01 7.18389957e-04
6.85511238e-03 -2.11815261e+00 1.31570144e+00 7.97720389e-01 6.29732524e-04
6.90166228e-03 -2.11188601e+00 1.31552746e+00 7.88290906e-01 7.86603348e-04
6.94821786e-03 -2.10389147e+00 1.31552672e+00 7.81120262e-01 7.31364972e-04
6.99477871e-03 -2.10360076e+00 1.31490870e+00 7.82088439e-01 5.52721063e-04
7.04134446e-03 -2.11311330e+00 1.31425825e+00 7.90891506e-01 7.08699217e-04
7.08791469e-03 -2.12935863e+00 1.31376735e+00 8.05227852e-01 1.22155998e-03
7.13448903e-03 -2.14345143e+00 1.31345997e+00 8.17706886e-01 1.59340128e-03
7.18106706e-03 -2.14690657e+00 1.31412593e+00 8.22508263e-01 1.52058785e-03
7.22764841e-03 -2.14233151e+00 1.31537474e+00 8.19144984e-01 1.28871871e-03
7.27423266e-03 -2.13999279e+00 1.31569265e+00 8.16553847e-01 1.21600431e-03
7.32081944e-03 -2.14595243e+00 1.31488739e+00 8.23721553e-01 1.18456044e-03
7.36740834e-03 -2.15883977e+00 1.31367683e+00 8.40197609e-01 1.06634489e-03
7.41399897e-03 -2.17216509e+00 1.31273141e+00 8.55597208e-01 1.05621030e-03
7.46059093e-03 -2.17832832e+00 1.31224797e+00 8.60425630e-01 1.26252216e-03
7.50718383e-03 -2.17557531e+00 1.31194314e+00 8.57858290e-01 1.48050027e-03
7.55377727e-03 -2.16765106e+00 1.31162195e+00 8.50665243e-01 1.52915311e-03
7.60037086e-03 -2.15823477e+00 1.31118642e+00 8.40518990e-01 1.41096968e-03
7.64696420e-03 -2.15301522e+00 1.31097618e+00 8.35764948e-01 1.25643603e-03
7.69355690e-03 -2.15708388e+00 1.31116355e+00 8.39468149e-01 1.27535084e-03
7.74014856e-03 -2.16438156e+00 1.31163627e+00 8.44459999e-01 1.49483368e-03
7.78673878e-03 -2.16492461e+00 1.31183869e+00 8.45391915e-01 1.70971733e-03
7.83332718e-03 -2.16011631e+00 1.31153222e+00 8.41877477e-01 1.83224192e-03
7.87991336e-03 -2.15555947e+00 1.31109126e+00 8.37240995e-01 1.94400349e-03
7.92649691e-03 -2.15018806e+00 1.31069523e+00 8.31407490e-01 2.04639778e-03
7.97307746e-03 -2.14475936e+00 1.31053733e+00 8.25182384e-01 2.04399807e-03
8.01965459e-03 -2.14618513e+00 1.31068213e+00 8.26031553e-01 1.92926186e-03
8.06622792e-03 -2.15401649e+00 1.31044977e+00 8.33724432e-01 1.85748402e-03
8.11279706e-03 -2.15577924e+00 1.30993493e+00 8.35294384e-01 1.96917409e-03
8.15936160e-03 -2.14348538e+00 1.30969118e+00 8.22134948e-01 2.16527278e-03
8.20592115e-03 -2.12516280e+00 1.30958833e+00 8.04624497e-01 2.24567611e-03
8.25247533e-03 -2.11286159e+00 1.30974846e+00 7.94015415e-01 2.23710704e-03
8.29902373e-03 -2.10634631e+00 1.31043163e+00 7.84804887e-01 2.25628891e-03
8.34556597e-03 -2.09777070e+00 1.31115133e+00 7.73855690e-01 2.23893186e-03
8.39210164e-03 -2.08581353e+00 1.31126267e+00 7.63044973e-01 2.19324964e-03
8.43863036e-03 -2.07335431e+00 1.31083743e+00 7.49447000e-01 2.27755866e-03
8.48515173e-03 -2.05867692e+00 1.31033282e+00 7.33971466e-01 2.46341486e-03
8.53166536e-03 -2.03945694e+00 1.30980936e+00 7.16538062e-01 2.62252328e-03
8.57817085e-03 -2.01923770e+00 1.30905818e+00 6.96320914e-01 2.69828087e-03
8.62466782e-03 -2.00535206e+00 1.30845180e+00 6.82648192e-01 2.59310904e-03
8.67115588e-03 -2.00136965e+00 1.30849831e+00 6.80967232e-01 2.35976604e-03
