VARIABLES="Y/c","convection","viscous",pressure gradient",Reynolds stress"
0.00000000e+00 0.00000000e+00 5.70502409e+00 1.18024992e-05 -6.20602753e+00
1.09846017e-06 -1.69406137e-03 5.72032169e+00 -4.41185314e-06 -5.80850476e+00
2.23765486e-06 -1.65203280e-03 5.72425841e+00 -1.50293031e-06 -5.71024453e+00
3.41895903e-06 -4.46039445e-03 5.72238435e+00 -6.74713145e-06 -5.84165332e+00
4.64378265e-06 -6.45779236e-03 5.72476849e+00 -1.27707096e-05 -5.71581599e+00
5.91357050e-06 -1.10434574e-02 5.72348080e+00 -2.61407798e-05 -5.81008990e+00
7.22980200e-06 -1.53491945e-02 5.72437117e+00 -4.31646163e-05 -5.73707302e+00
8.59399073e-06 -2.21800161e-02 5.72414896e+00 -6.12702910e-05 -5.77106213e+00
1.00076839e-05 -2.92660837e-02 5.72288583e+00 -8.71422264e-05 -5.74251441e+00
1.14724617e-05 -3.87792355e-02 5.72445803e+00 -1.07564903e-04 -5.74170785e+00
1.29899363e-05 -4.91657792e-02 5.72022691e+00 -1.31176785e-04 -5.72907497e+00
1.45617509e-05 -6.19708083e-02 5.72442723e+00 -1.47808537e-04 -5.71546257e+00
1.61895782e-05 -7.62556040e-02 5.71637239e+00 -1.61777112e-04 -5.70291170e+00
1.78751192e-05 -9.30690675e-02 5.72407251e+00 -1.66509184e-04 -5.68456427e+00
1.96201010e-05 -1.12008627e-01 5.71137317e+00 -1.65003315e-04 -5.66700829e+00
2.14262752e-05 -1.33678738e-01 5.72339246e+00 -1.53787132e-04 -5.64468450e+00
2.32954149e-05 -1.58164032e-01 5.70539626e+00 -1.34455513e-04 -5.62098713e+00
2.52293125e-05 -1.85682405e-01 5.72234616e+00 -1.06917633e-04 -5.59338453e+00
2.72297765e-05 -2.16742500e-01 5.69877167e+00 -7.21988880e-05 -5.56296458e+00
2.92986277e-05 -2.51212078e-01 5.72083817e+00 -3.20601164e-05 -5.52863382e+00
3.14376959e-05 -2.90003484e-01 5.69204270e+00 1.22091080e-05 -5.49059866e+00
3.36488148e-05 -3.32626172e-01 5.71871689e+00 5.81565328e-05 -5.44824158e+00
3.59338177e-05 -3.80424520e-01 5.68601839e+00 1.04276131e-04 -5.40140123e+00
3.82945321e-05 -4.32508981e-01 5.71580245e+00 1.48252227e-04 -5.34974901e+00
4.07327731e-05 -4.90729245e-01 5.68181981e+00 1.88586252e-04 -5.29271969e+00
4.32503377e-05 -5.53724937e-01 5.71196770e+00 2.23630585e-04 -5.23042220e+00
4.58489968e-05 -6.23944608e-01 5.68090720e+00 2.52119742e-04 -5.16165298e+00
4.85304876e-05 -6.99486896e-01 5.70730323e+00 2.73153032e-04 -5.08724193e+00
5.12965047e-05 -7.83442001e-01 5.68506472e+00 2.85725319e-04 -5.00502286e+00
5.41486907e-05 -8.73384243e-01 5.70240313e+00 2.89436782e-04 -4.91693216e+00
5.70886255e-05 -9.72958063e-01 5.69629760e+00 2.83286821e-04 -4.81939447e+00
6.01178151e-05 -1.07933657e+00 5.69879364e+00 2.67017436e-04 -4.71614606e+00
6.32376789e-05 -1.19673572e+00 5.71655768e+00 2.39261912e-04 -4.60080588e+00
6.64495369e-05 -1.32132288e+00 5.69942486e+00 1.99752562e-04 -4.48253281e+00
6.97545942e-05 -1.46005443e+00 5.74718364e+00 1.46584218e-04 -4.34294337e+00
7.31539261e-05 -1.60308632e+00 5.70876531e+00 7.98831155e-05 -4.21696008e+00
7.66484603e-05 -1.76731216e+00 5.78791471e+00 -2.16190924e-06 -4.03973924e+00
8.02389588e-05 -1.93462669e+00 5.73140387e+00 -9.85919860e-05 -3.91035572e+00
8.39259982e-05 -2.11169264e+00 5.83429578e+00 -2.07984355e-04 -3.71085236e+00
8.77099520e-05 -2.34655352e+00 5.76836018e+00 -3.29939139e-04 -3.48034700e+00
9.15924622e-05 -2.39659872e+00 5.86945029e+00 -4.54354889e-04 -3.39554316e+00
9.55739222e-05 -2.65322371e+00 5.79503699e+00 -5.81352508e-04 -3.13225834e+00
9.96576399e-05 -2.86430090e+00 5.86198851e+00 -6.97017526e-04 -2.90044589e+00
1.03846383e-04 -3.08951888e+00 5.79976398e+00 -7.93396844e-04 -2.69341618e+00
1.08143279e-04 -3.34297110e+00 5.83024859e+00 -8.59007430e-04 -2.42861657e+00
1.12551883e-04 -3.58487660e+00 5.79494680e+00 -8.82618269e-04 -2.18567701e+00
1.17076238e-04 -3.85679276e+00 5.79320960e+00 -8.57637457e-04 -1.91103406e+00
1.21721017e-04 -4.13034079e+00 5.78765774e+00 -7.78498657e-04 -1.63287781e+00
1.26491584e-04 -4.42008061e+00 5.76227034e+00 -6.47745183e-04 -1.33919361e+00
1.31394054e-04 -4.72154231e+00 5.78087080e+00 -4.71647408e-04 -1.03656845e+00
1.36435541e-04 -5.03402089e+00 5.74176753e+00 -2.63671086e-04 -7.20049659e-01
1.41624393e-04 -5.35839194e+00 5.77448155e+00 -4.02344828e-05 -3.92642503e-01
1.46970080e-04 -5.69333707e+00 5.73061633e+00 1.79764746e-04 -5.59985355e-02
1.52483256e-04 -6.03693287e+00 5.76699846e+00 3.79693710e-04 2.87588097e-01
1.58176641e-04 -6.39017692e+00 5.72506803e+00 5.47056712e-04 6.42415894e-01
1.64065468e-04 -6.74865868e+00 5.75707209e+00 6.75687583e-04 1.00699556e+00
1.70165531e-04 -7.11476129e+00 5.72122079e+00 7.65665239e-04 1.37498754e+00
1.76489864e-04 -7.48121542e+00 5.74438957e+00 8.22762494e-04 1.74280483e+00
1.83047600e-04 -7.84972481e+00 5.71634606e+00 8.56394588e-04 2.11203623e+00
1.89846004e-04 -8.21148796e+00 5.72954827e+00 8.75916658e-04 2.48017440e+00
1.96892765e-04 -8.56731846e+00 5.70906489e+00 8.88395914e-04 2.83938099e+00
2.04196308e-04 -8.90753582e+00 5.71336727e+00 8.97398330e-04 3.18359937e+00
2.11765137e-04 -9.23045714e+00 5.69886268e+00 9.04215451e-04 3.50936018e+00
2.19607743e-04 -9.52671829e+00 5.69637324e+00 9.08075156e-04 3.81104122e+00
2.27732862e-04 -9.79202587e+00 5.68570859e+00 9.07766033e-04 4.08064464e+00
2.36149497e-04 -1.00183592e+01 5.67873432e+00 9.01993595e-04 4.31148984e+00
2.44866877e-04 -1.01991710e+01 5.66992555e+00 8.90177212e-04 4.49756018e+00
2.53894420e-04 -1.03286691e+01 5.66047093e+00 8.71683822e-04 4.63198383e+00
2.63241425e-04 -1.03990988e+01 5.65212529e+00 8.46174172e-04 4.70806636e+00
2.72916634e-04 -1.04078693e+01 5.64167798e+00 8.13431368e-04 4.72128185e+00
2.82928175e-04 -1.03491837e+01 5.63311794e+00 7.73644437e-04 4.66882044e+00
2.93283835e-04 -1.02250882e+01 5.62264576e+00 7.27098362e-04 4.54940036e+00
3.03991227e-04 -1.00338437e+01 5.61379426e+00 6.74413859e-04 4.36420165e+00
3.15057740e-04 -9.78269981e+00 5.60385201e+00 6.16561791e-04 4.11766604e+00
3.26490441e-04 -9.47632112e+00 5.59499281e+00 5.54874191e-04 3.81708796e+00
3.38295958e-04 -9.12711525e+00 5.58585777e+00 4.90918616e-04 3.47240888e+00
3.50480369e-04 -8.74563658e+00 5.57738366e+00 4.26441274e-04 3.09610806e+00
3.63049376e-04 -8.34736731e+00 5.56915634e+00 3.63271928e-04 2.70238528e+00
3.76008729e-04 -7.94612580e+00 5.56137333e+00 3.03118294e-04 2.30585694e+00
3.89364403e-04 -7.55664025e+00 5.55403052e+00 2.47476591e-04 1.92064570e+00
4.03122286e-04 -7.19134791e+00 5.54705863e+00 1.97495579e-04 1.55944966e+00
4.17287811e-04 -6.86029305e+00 5.54048048e+00 1.53935253e-04 1.23245546e+00
4.31865797e-04 -6.57075787e+00 5.53425017e+00 1.17084894e-04 9.46644412e-01
4.46860404e-04 -6.32590690e+00 5.52825105e+00 8.68283889e-05 7.05590376e-01
4.62275173e-04 -6.12642743e+00 5.52256421e+00 6.26860163e-05 5.09546835e-01
4.78112986e-04 -5.96926003e+00 5.51693018e+00 4.39438601e-05 3.55949116e-01
4.94376041e-04 -5.85014527e+00 5.51154163e+00 2.97353145e-05 2.40155365e-01
5.11066393e-04 -5.76277000e+00 5.50607030e+00 1.91642985e-05 1.56236804e-01
5.28186158e-04 -5.70107101e+00 5.50075690e+00 1.13837148e-05 9.78384883e-02
5.45736173e-04 -5.65868216e+00 5.49528580e+00 5.66207008e-06 5.88864475e-02
5.63715789e-04 -5.63040368e+00 5.48988421e+00 1.39621592e-06 3.40068614e-02
5.82125074e-04 -5.61170794e+00 5.48430104e+00 -1.87262156e-06 1.88034144e-02
6.00963427e-04 -5.59932401e+00 5.47871104e+00 -4.46970838e-06 9.95211715e-03
6.20225645e-04 -5.59080873e+00 5.47294817e+00 -6.61619616e-06 5.04640499e-03
6.39907597e-04 -5.58454341e+00 5.46712274e+00 -8.46163354e-06 2.42625703e-03
6.60013661e-04 -5.57947069e+00 5.46114188e+00 -1.00978554e-05 1.08342807e-03
6.80543360e-04 -5.57499167e+00 5.45505904e+00 -1.15714185e-05 4.73952686e-04
7.01479268e-04 -5.57083432e+00 5.44884573e+00 -1.29070312e-05 2.40620598e-04
7.22816057e-04 -5.56677976e+00 5.44251151e+00 -1.41253782e-05 1.12838883e-04
7.44582267e-04 -5.56267205e+00 5.43605073e+00 -1.52488841e-05 -1.48906688e-06
7.66774778e-04 -5.55843857e+00 5.42945023e+00 -1.62845510e-05 -3.90521360e-05
7.89274378e-04 -5.55419512e+00 5.42276777e+00 -1.72207954e-05 1.86009154e-05
8.11891572e-04 -5.55002601e+00 5.41602786e+00 -1.80484403e-05 8.10543196e-05
8.34507670e-04 -5.54588476e+00 5.40929671e+00 -1.87949427e-05 5.54888500e-05
8.57122252e-04 -5.54163720e+00 5.40254396e+00 -1.94768195e-05 -3.11987284e-05
8.79768628e-04 -5.53729962e+00 5.39578724e+00 -2.00847706e-05 -5.12690477e-05
9.02445929e-04 -5.53296978e+00 5.38901506e+00 -2.06233470e-05 -3.73252749e-06
9.25139423e-04 -5.52867576e+00 5.38222545e+00 -2.11004275e-05 1.03720748e-05
9.47850342e-04 -5.52438308e+00 5.37542795e+00 -2.15234155e-05 1.69461232e-06
9.70584999e-04 -5.52007066e+00 5.36861478e+00 -2.19040110e-05 5.49309123e-06
9.93341609e-04 -5.51574870e+00 5.36178890e+00 -2.22425489e-05 8.24752697e-06
1.01611721e-03 -5.51141667e+00 5.35495003e+00 -2.25404311e-05 6.41704398e-06
1.03891276e-03 -5.50707017e+00 5.34809853e+00 -2.28042505e-05 5.61045733e-06
1.06172894e-03 -5.50271187e+00 5.34123427e+00 -2.30374269e-05 6.74644574e-06
1.08456468e-03 -5.49834284e+00 5.33435679e+00 -2.32426259e-05 5.56181072e-06
1.10741952e-03 -5.49396118e+00 5.32746706e+00 -2.34220738e-05 2.65749770e-06
1.13029359e-03 -5.48956646e+00 5.32056453e+00 -2.35789854e-05 -5.76136827e-07
1.15318660e-03 -5.48515964e+00 5.31364945e+00 -2.37156433e-05 -5.00464730e-06
1.17609818e-03 -5.48074085e+00 5.30672193e+00 -2.38338874e-05 -1.08078281e-05
1.19902822e-03 -5.47631043e+00 5.29978185e+00 -2.39355422e-05 -1.67548054e-05
1.22197661e-03 -5.47186961e+00 5.29282961e+00 -2.40222560e-05 -2.19111092e-05
1.24494312e-03 -5.46741951e+00 5.28586477e+00 -2.40954071e-05 -2.55016673e-05
1.26792757e-03 -5.46296101e+00 5.27888804e+00 -2.41562200e-05 -2.65320412e-05
1.29092980e-03 -5.45849462e+00 5.27189884e+00 -2.42062147e-05 -2.44340193e-05
1.31394964e-03 -5.45402039e+00 5.26489788e+00 -2.42461359e-05 -1.93677883e-05
1.33698690e-03 -5.44953762e+00 5.25788466e+00 -2.42769773e-05 -1.20340711e-05
1.36004141e-03 -5.44504517e+00 5.25085978e+00 -2.43000923e-05 -3.58636290e-06
1.38311299e-03 -5.44054167e+00 5.24382284e+00 -2.43161996e-05 4.56979032e-06
1.40620145e-03 -5.43602590e+00 5.23677428e+00 -2.43259584e-05 1.11701533e-05
1.42930662e-03 -5.43149703e+00 5.22971388e+00 -2.43302761e-05 1.53854748e-05
1.45242831e-03 -5.42695486e+00 5.22264191e+00 -2.43295508e-05 1.69564615e-05
1.47556634e-03 -5.42239972e+00 5.21555828e+00 -2.43248106e-05 1.61882809e-05
1.49872053e-03 -5.41783236e+00 5.20846314e+00 -2.43157422e-05 1.37856186e-05
1.52189069e-03 -5.41325366e+00 5.20135651e+00 -2.43033454e-05 1.05967543e-05
1.54507663e-03 -5.40866441e+00 5.19423845e+00 -2.42876471e-05 7.38307162e-06
1.56827818e-03 -5.40406514e+00 5.18710904e+00 -2.42690469e-05 4.66428267e-06
1.59149514e-03 -5.39945610e+00 5.17996828e+00 -2.42478036e-05 2.66711146e-06
1.61472733e-03 -5.39483731e+00 5.17281627e+00 -2.42240157e-05 1.37305346e-06
1.63797457e-03 -5.39020860e+00 5.16565301e+00 -2.41982494e-05 6.21962917e-07
1.66123667e-03 -5.38556982e+00 5.15847860e+00 -2.41705073e-05 2.16294590e-07
1.68451345e-03 -5.38092082e+00 5.15129302e+00 -2.41411443e-05 -7.93290095e-09
1.70780473e-03 -5.37626151e+00 5.14409637e+00 -2.41103497e-05 -1.52898125e-07
1.73111032e-03 -5.37159188e+00 5.13688865e+00 -2.40782757e-05 -2.64371295e-07
1.75443005e-03 -5.36691194e+00 5.12966992e+00 -2.40448508e-05 -3.53816319e-07
1.77776371e-03 -5.36222171e+00 5.12244021e+00 -2.40106064e-05 -4.21619031e-07
1.80111114e-03 -5.35752120e+00 5.11519959e+00 -2.39753697e-05 -4.70436858e-07
1.82447215e-03 -5.35281045e+00 5.10794811e+00 -2.39391976e-05 -5.07552335e-07
1.84784654e-03 -5.34808947e+00 5.10068583e+00 -2.39023985e-05 -5.41298131e-07
1.87123414e-03 -5.34335829e+00 5.09341282e+00 -2.38648536e-05 -5.77355780e-07
1.89463475e-03 -5.33861695e+00 5.08612914e+00 -2.38265619e-05 -6.17303700e-07
1.91804820e-03 -5.33386548e+00 5.07883484e+00 -2.37880351e-05 -6.59687705e-07
1.94147428e-03 -5.32910391e+00 5.07153000e+00 -2.37490007e-05 -7.02243068e-07
1.96491282e-03 -5.32433228e+00 5.06421465e+00 -2.37094106e-05 -7.43613042e-07
1.98836362e-03 -5.31955063e+00 5.05688887e+00 -2.36695491e-05 -7.83765319e-07
2.01182650e-03 -5.31475899e+00 5.04955270e+00 -2.36294728e-05 -8.23425021e-07
2.03530126e-03 -5.30995741e+00 5.04220622e+00 -2.35890659e-05 -8.63312076e-07
2.05878773e-03 -5.30514593e+00 5.03484948e+00 -2.35483801e-05 -9.03640483e-07
2.08228569e-03 -5.30032459e+00 5.02748255e+00 -2.35075306e-05 -9.44235422e-07
2.10579498e-03 -5.29549343e+00 5.02010551e+00 -2.34663300e-05 -9.84819722e-07
2.12931539e-03 -5.29065251e+00 5.01271843e+00 -2.34253130e-05 -1.02519402e-06
2.15284674e-03 -5.28580188e+00 5.00532138e+00 -2.33839300e-05 -1.06529134e-06
2.17638883e-03 -5.28094159e+00 4.99791445e+00 -2.33423346e-05 -1.10516095e-06
2.19994147e-03 -5.27607170e+00 4.99049773e+00 -2.33007130e-05 -1.14493343e-06
2.22350447e-03 -5.27119226e+00 4.98307129e+00 -2.32590197e-05 -1.18468451e-06
2.24707764e-03 -5.26630333e+00 4.97563522e+00 -2.32172772e-05 -1.22432123e-06
2.27066078e-03 -5.26140496e+00 4.96818959e+00 -2.31753104e-05 -1.26373720e-06
2.29425370e-03 -5.25649721e+00 4.96073447e+00 -2.31334127e-05 -1.30291741e-06
2.31785621e-03 -5.25158013e+00 4.95326992e+00 -2.30914504e-05 -1.34188451e-06
2.34146812e-03 -5.24665377e+00 4.94579603e+00 -2.30495544e-05 -1.38063037e-06
2.36508922e-03 -5.24171821e+00 4.93831287e+00 -2.30074811e-05 -1.41915070e-06
2.38871933e-03 -5.23677350e+00 4.93082055e+00 -2.29655571e-05 -1.45745329e-06
2.41235825e-03 -5.23181971e+00 4.92331915e+00 -2.29235214e-05 -1.49555801e-06
2.43600579e-03 -5.22685691e+00 4.91580877e+00 -2.28816347e-05 -1.53346247e-06
2.45966175e-03 -5.22188516e+00 4.90828951e+00 -2.28396091e-05 -1.57112791e-06
2.48332594e-03 -5.21690453e+00 4.90076145e+00 -2.27975968e-05 -1.60853457e-06
2.50699815e-03 -5.21191508e+00 4.89322467e+00 -2.27555422e-05 -1.64568837e-06
2.53067821e-03 -5.20691689e+00 4.88567927e+00 -2.27134821e-05 -1.68260675e-06
2.55436589e-03 -5.20191001e+00 4.87812534e+00 -2.26715256e-05 -1.71929202e-06
2.57806102e-03 -5.19689452e+00 4.87056298e+00 -2.26296144e-05 -1.75571849e-06
2.60176340e-03 -5.19187049e+00 4.86299228e+00 -2.25876797e-05 -1.79187896e-06
2.62547282e-03 -5.18683798e+00 4.85541332e+00 -2.25458126e-05 -1.82777996e-06
2.64918909e-03 -5.18179707e+00 4.84782620e+00 -2.25040177e-05 -1.86341613e-06
2.67291202e-03 -5.17674781e+00 4.84023099e+00 -2.24620933e-05 -1.89877138e-06
2.69664140e-03 -5.17169029e+00 4.83262779e+00 -2.24204281e-05 -1.93380485e-06
2.72037704e-03 -5.16662456e+00 4.82501669e+00 -2.23785405e-05 -1.96852718e-06
2.74411874e-03 -5.16155071e+00 4.81739779e+00 -2.23367017e-05 -2.00295888e-06
2.76786630e-03 -5.15646881e+00 4.80977119e+00 -2.22952004e-05 -2.03707702e-06
2.79161952e-03 -5.15137893e+00 4.80213699e+00 -2.22534128e-05 -2.07086688e-06
2.81537820e-03 -5.14628114e+00 4.79449529e+00 -2.22117506e-05 -2.10431406e-06
2.83914215e-03 -5.14117552e+00 4.78684618e+00 -2.21700991e-05 -2.13743183e-06
2.86291117e-03 -5.13606213e+00 4.77918976e+00 -2.21285943e-05 -2.17022608e-06
2.88668505e-03 -5.13094107e+00 4.77152615e+00 -2.20872393e-05 -2.20267055e-06
2.91046360e-03 -5.12581240e+00 4.76385543e+00 -2.20457532e-05 -2.23472573e-06
2.93424661e-03 -5.12067619e+00 4.75617772e+00 -2.20043760e-05 -2.26638551e-06
2.95803389e-03 -5.11553251e+00 4.74849308e+00 -2.19630443e-05 -2.29766805e-06
2.98182525e-03 -5.11038144e+00 4.74080160e+00 -2.19216375e-05 -2.32856657e-06
3.00562046e-03 -5.10522304e+00 4.73310336e+00 -2.18804856e-05 -2.35903901e-06
3.02941935e-03 -5.10005737e+00 4.72539844e+00 -2.18392924e-05 -2.38911664e-06
3.05322170e-03 -5.09488453e+00 4.71768693e+00 -2.17981982e-05 -2.41882680e-06
3.07702732e-03 -5.08970457e+00 4.70996896e+00 -2.17571469e-05 -2.44821809e-06
3.10083601e-03 -5.08451759e+00 4.70224463e+00 -2.17161731e-05 -2.47712304e-06
3.12464756e-03 -5.07932366e+00 4.69451406e+00 -2.16753040e-05 -2.50559858e-06
3.14846178e-03 -5.07412287e+00 4.68677737e+00 -2.16342846e-05 -2.53377823e-06
3.17227846e-03 -5.06891529e+00 4.67903465e+00 -2.15934227e-05 -2.56165740e-06
3.19609740e-03 -5.06370098e+00 4.67128599e+00 -2.15525772e-05 -2.58898950e-06
3.21991841e-03 -5.05848002e+00 4.66353145e+00 -2.15117377e-05 -2.61518358e-06
3.24374127e-03 -5.05325249e+00 4.65577114e+00 -2.14710074e-05 -2.64170718e-06
3.26756580e-03 -5.04801843e+00 4.64800511e+00 -2.14303101e-05 -2.66890079e-06
3.29139179e-03 -5.04277795e+00 4.64023349e+00 -2.13898272e-05 -2.69525942e-06
3.31521903e-03 -5.03753110e+00 4.63245638e+00 -2.13494580e-05 -2.71889495e-06
3.33904733e-03 -5.03227797e+00 4.62467386e+00 -2.13090827e-05 -2.74183667e-06
3.36287649e-03 -5.02701867e+00 4.61688611e+00 -2.12687558e-05 -2.76741911e-06
3.38670629e-03 -5.02175324e+00 4.60909320e+00 -2.12285408e-05 -2.79231382e-06
3.41053656e-03 -5.01648177e+00 4.60129521e+00 -2.11883678e-05 -2.81548005e-06
3.43436707e-03 -5.01120433e+00 4.59349224e+00 -2.11482950e-05 -2.83845551e-06
3.45819763e-03 -5.00592099e+00 4.58568437e+00 -2.11082215e-05 -2.86095592e-06
3.48202804e-03 -5.00063182e+00 4.57787171e+00 -2.10681981e-05 -2.88310812e-06
3.50585810e-03 -4.99533690e+00 4.57005434e+00 -2.10284627e-05 -2.90481175e-06
3.52968760e-03 -4.99003632e+00 4.56223238e+00 -2.09884717e-05 -2.92607333e-06
3.55351635e-03 -4.98473014e+00 4.55440593e+00 -2.09486804e-05 -2.94687878e-06
3.57734414e-03 -4.97941846e+00 4.54657510e+00 -2.09090020e-05 -2.96722831e-06
3.60117077e-03 -4.97410134e+00 4.53873998e+00 -2.08693581e-05 -2.98713106e-06
3.62499604e-03 -4.96877886e+00 4.53090068e+00 -2.08297753e-05 -3.00656952e-06
3.64881975e-03 -4.96345108e+00 4.52305726e+00 -2.07901316e-05 -3.02554158e-06
3.67264169e-03 -4.95811809e+00 4.51520981e+00 -2.07507831e-05 -3.04402606e-06
3.69646168e-03 -4.95277995e+00 4.50735842e+00 -2.07113299e-05 -3.06203650e-06
3.72027950e-03 -4.94743674e+00 4.49950319e+00 -2.06719819e-05 -3.07960417e-06
3.74409495e-03 -4.94208854e+00 4.49164422e+00 -2.06328139e-05 -3.09674846e-06
3.76790784e-03 -4.93673543e+00 4.48378165e+00 -2.05937236e-05 -3.11344442e-06
3.79171796e-03 -4.93137750e+00 4.47591558e+00 -2.05547889e-05 -3.12966460e-06
3.81552511e-03 -4.92601483e+00 4.46804612e+00 -2.05158854e-05 -3.14538889e-06
3.83932910e-03 -4.92064747e+00 4.46017333e+00 -2.04769395e-05 -3.16063791e-06
3.86312971e-03 -4.91527551e+00 4.45229730e+00 -2.04381058e-05 -3.17541666e-06
3.88692676e-03 -4.90989901e+00 4.44441810e+00 -2.03994541e-05 -3.18970779e-06
3.91072003e-03 -4.90451804e+00 4.43653583e+00 -2.03608492e-05 -3.20351814e-06
3.93450934e-03 -4.89913268e+00 4.42865058e+00 -2.03223940e-05 -3.21685454e-06
3.95829448e-03 -4.89374302e+00 4.42076246e+00 -2.02841168e-05 -3.22974362e-06
3.98207524e-03 -4.88834914e+00 4.41287159e+00 -2.02457764e-05 -3.24218628e-06
4.00585144e-03 -4.88295111e+00 4.40497808e+00 -2.02076491e-05 -3.25417304e-06
4.02962286e-03 -4.87754900e+00 4.39708203e+00 -2.01695698e-05 -3.26566444e-06
4.05338932e-03 -4.87214291e+00 4.38918352e+00 -2.01315907e-05 -3.27665982e-06
4.07715061e-03 -4.86673290e+00 4.38128265e+00 -2.00935999e-05 -3.28718679e-06
4.10090654e-03 -4.86131904e+00 4.37337953e+00 -2.00556282e-05 -3.29726478e-06
4.12465690e-03 -4.85590142e+00 4.36547424e+00 -2.00179226e-05 -3.30688373e-06
4.14840149e-03 -4.85048010e+00 4.35756688e+00 -1.99801524e-05 -3.31602431e-06
4.17214012e-03 -4.84505518e+00 4.34965754e+00 -1.99425665e-05 -3.32467952e-06
4.19587259e-03 -4.83962670e+00 4.34174631e+00 -1.99051529e-05 -3.33283803e-06
4.21959870e-03 -4.83419476e+00 4.33383328e+00 -1.98677470e-05 -3.34049911e-06
4.24331825e-03 -4.82875942e+00 4.32591855e+00 -1.98305520e-05 -3.34764197e-06
4.26703105e-03 -4.82332077e+00 4.31800221e+00 -1.97933613e-05 -3.35425964e-06
4.29073689e-03 -4.81787888e+00 4.31008438e+00 -1.97562517e-05 -3.36042721e-06
4.31443559e-03 -4.81243383e+00 4.30216516e+00 -1.97191797e-05 -3.36627054e-06
4.33812694e-03 -4.80698570e+00 4.29424465e+00 -1.96823819e-05 -3.37196130e-06
4.36181074e-03 -4.80153457e+00 4.28632294e+00 -1.96454496e-05 -3.37763942e-06
4.38548681e-03 -4.79608049e+00 4.27840012e+00 -1.96086630e-05 -3.38340500e-06
4.40915493e-03 -4.79062356e+00 4.27047626e+00 -1.95718937e-05 -3.38924646e-06
4.43281493e-03 -4.78516383e+00 4.26255146e+00 -1.95353593e-05 -3.39505590e-06
