VARIABLES="Y/c","convection","viscous",pressure gradient",Reynolds stress"
0.00000000e+00 0.00000000e+00 1.31388590e+01 3.52447538e+00 -1.11770169e+01
1.10109387e-06 5.02935490e-02 1.31387123e+01 -6.18395171e+00 -6.62674677e+00
2.24303857e-06 2.61396978e-01 1.31370191e+01 -1.64358391e+01 2.61995776e+00
3.42721456e-06 5.88598707e-01 1.31333868e+01 -3.50351704e+01 2.22044440e+01
4.65503759e-06 1.09056015e+00 1.31255624e+01 -5.30972190e+01 3.85267400e+01
5.92795857e-06 1.72793612e+00 1.31131426e+01 -6.76655898e+01 5.35841055e+01
7.24746330e-06 2.53057339e+00 1.30949935e+01 -7.70760347e+01 6.14456982e+01
8.61507214e-06 3.45505169e+00 1.30710504e+01 -8.13580484e+01 6.55269455e+01
1.00323394e-05 4.50919784e+00 1.30411140e+01 -8.26379334e+01 6.53234822e+01
1.15008528e-05 5.65438891e+00 1.30054088e+01 -8.13795555e+01 6.32348580e+01
1.30222324e-05 6.88849605e+00 1.29642083e+01 -7.92398454e+01 5.97499363e+01
1.45981296e-05 8.18500261e+00 1.29177490e+01 -7.64594536e+01 5.57545135e+01
1.62302260e-05 9.53961122e+00 1.28664514e+01 -7.36145334e+01 5.15436453e+01
1.79202319e-05 1.09356633e+01 1.28106294e+01 -7.06744791e+01 4.72696117e+01
1.96698841e-05 1.23668246e+01 1.27508751e+01 -6.78555101e+01 4.30320929e+01
2.14809444e-05 1.38199114e+01 1.26876269e+01 -6.50321583e+01 3.88083468e+01
2.33551968e-05 1.52830041e+01 1.26214651e+01 -6.22829654e+01 3.46340614e+01
2.52944453e-05 1.67418491e+01 1.25526873e+01 -5.95687947e+01 3.05137108e+01
2.73005104e-05 1.81795152e+01 1.24815961e+01 -5.69353470e+01 2.64941034e+01
2.93752258e-05 1.95793560e+01 1.24084171e+01 -5.44075067e+01 2.26287818e+01
3.15204345e-05 2.09210044e+01 1.23336554e+01 -5.20315037e+01 1.89779862e+01
3.37379848e-05 2.21863013e+01 1.22578598e+01 -4.98491995e+01 1.56016285e+01
3.60297249e-05 2.33534444e+01 1.21816665e+01 -4.78904785e+01 1.25497118e+01
3.83974982e-05 2.44062124e+01 1.21055212e+01 -4.61817123e+01 9.85858049e+00
4.08431368e-05 2.53311165e+01 1.20299089e+01 -4.47225211e+01 7.54763760e+00
4.33684554e-05 2.61245664e+01 1.19552853e+01 -4.35100459e+01 5.61582264e+00
4.59752437e-05 2.67835209e+01 1.18822791e+01 -4.25224824e+01 4.04272234e+00
4.86652588e-05 2.73095596e+01 1.18116550e+01 -4.17241296e+01 2.79067102e+00
5.14402165e-05 2.77022897e+01 1.17443049e+01 -4.10776288e+01 1.81762722e+00
5.43017816e-05 2.79633803e+01 1.16804862e+01 -4.05384373e+01 1.08344364e+00
5.72515575e-05 2.80947009e+01 1.16197724e+01 -4.00778607e+01 5.52317609e-01
6.02910752e-05 2.81042624e+01 1.15611890e+01 -3.96588153e+01 1.84069327e-01
6.34217807e-05 2.79988950e+01 1.15039538e+01 -3.92509838e+01 -6.07758962e-02
6.66450216e-05 2.77899614e+01 1.14473816e+01 -3.88297077e+01 -2.14314716e-01
6.99620330e-05 2.74887219e+01 1.13911708e+01 -3.83890384e+01 -2.99004630e-01
7.33739211e-05 2.71014904e+01 1.13349979e+01 -3.79173944e+01 -3.29669976e-01
7.68816471e-05 2.66313725e+01 1.12789929e+01 -3.74005522e+01 -3.26146982e-01
8.04860081e-05 2.60833964e+01 1.12231244e+01 -3.68213166e+01 -2.96722870e-01
8.41876176e-05 2.54521570e+01 1.11679821e+01 -3.61783881e+01 -2.50170412e-01
8.79868889e-05 2.47270515e+01 1.11146535e+01 -3.54618135e+01 -1.89631070e-01
9.18846600e-05 2.39130688e+01 1.10647707e+01 -3.46683144e+01 -1.16288935e-01
9.58830637e-05 2.30177379e+01 1.10179955e+01 -3.37925039e+01 -4.98025943e-02
9.99846590e-05 2.20360712e+01 1.09730892e+01 -3.28288175e+01 1.68572384e-02
1.04192267e-04 2.09606567e+01 1.09281237e+01 -3.17752792e+01 8.67286729e-02
1.08509115e-04 1.97871681e+01 1.08813919e+01 -3.06149298e+01 1.52949490e-01
1.12938840e-04 1.85274745e+01 1.08320656e+01 -2.93706911e+01 2.22772209e-01
1.17485586e-04 1.71908150e+01 1.07791320e+01 -2.80492584e+01 2.92550638e-01
1.22154139e-04 1.57599924e+01 1.07236114e+01 -2.66167189e+01 3.55106984e-01
1.26949989e-04 1.42184432e+01 1.06674067e+01 -2.50674712e+01 4.11866430e-01
1.31879383e-04 1.25559605e+01 1.06138925e+01 -2.34038755e+01 4.69403478e-01
1.36949586e-04 1.07600803e+01 1.05633676e+01 -2.16177739e+01 5.30000593e-01
1.42169119e-04 8.83007368e+00 1.05161830e+01 -1.96876474e+01 5.87045432e-01
1.47547636e-04 6.75494464e+00 1.04725672e+01 -1.76095669e+01 6.41492316e-01
1.53095991e-04 4.51842053e+00 1.04350558e+01 -1.53939937e+01 7.03590946e-01
1.58827133e-04 2.14075077e+00 1.04036336e+01 -1.30466744e+01 7.71120840e-01
1.64756563e-04 -3.84817509e-01 1.03785806e+01 -1.05602007e+01 8.39872404e-01
1.70900334e-04 -3.10105325e+00 1.03580449e+01 -7.89076845e+00 9.16119365e-01
1.77271675e-04 -5.98252325e+00 1.03419480e+01 -5.07817198e+00 9.96266970e-01
1.83879820e-04 -9.03778829e+00 1.03258979e+01 -2.07094714e+00 1.07541430e+00
1.90732073e-04 -1.23083164e+01 1.03076460e+01 1.14108458e+00 1.16166906e+00
1.97836145e-04 -1.57095711e+01 1.02906167e+01 4.45966085e+00 1.25577510e+00
2.05200467e-04 -1.91924966e+01 1.02725247e+01 7.87498363e+00 1.35648017e+00
2.12833509e-04 -2.27675046e+01 1.02624654e+01 1.13481255e+01 1.46255681e+00
2.20743682e-04 -2.64444646e+01 1.02605481e+01 1.49307539e+01 1.56599428e+00
2.28939607e-04 -3.02599626e+01 1.02615651e+01 1.86478816e+01 1.66977698e+00
2.37430130e-04 -3.41516767e+01 1.02667603e+01 2.24160483e+01 1.77554981e+00
2.46224237e-04 -3.80355984e+01 1.02771565e+01 2.61973724e+01 1.87734414e+00
2.55331031e-04 -4.18509614e+01 1.02826372e+01 2.99072511e+01 1.97543497e+00
2.64759512e-04 -4.55463755e+01 1.02797669e+01 3.35131006e+01 2.06647150e+00
2.74518254e-04 -4.91110134e+01 1.02777031e+01 3.70045058e+01 2.14807277e+00
2.84615347e-04 -5.24157813e+01 1.02946771e+01 4.02130502e+01 2.22169334e+00
2.95058576e-04 -5.53008702e+01 1.03247982e+01 4.30080381e+01 2.28043773e+00
3.05855530e-04 -5.77395486e+01 1.03510697e+01 4.53813389e+01 2.31987690e+00
3.17013547e-04 -5.96524390e+01 1.03700125e+01 4.72507293e+01 2.34285601e+00
3.28539645e-04 -6.08558971e+01 1.03859376e+01 4.84285843e+01 2.34316995e+00
3.40440398e-04 -6.13014819e+01 1.04080647e+01 4.88814793e+01 2.31019389e+00
3.52721809e-04 -6.10736783e+01 1.04428965e+01 4.86810288e+01 2.24640489e+00
3.65389495e-04 -6.01159452e+01 1.04944445e+01 4.77456136e+01 2.15869374e+00
3.78449136e-04 -5.84208346e+01 1.05374502e+01 4.61108004e+01 2.04715751e+00
3.91906659e-04 -5.61353114e+01 1.05653785e+01 4.39274925e+01 1.91174832e+00
4.05767912e-04 -5.32286741e+01 1.05927061e+01 4.11323966e+01 1.75456132e+00
4.20038287e-04 -4.97249804e+01 1.06338694e+01 3.77573167e+01 1.57958878e+00
4.34722557e-04 -4.58177450e+01 1.06827687e+01 3.39707036e+01 1.39198463e+00
4.49824837e-04 -4.16872376e+01 1.07354244e+01 2.99657661e+01 1.19562271e+00
4.65348613e-04 -3.75417585e+01 1.08042953e+01 2.59408128e+01 9.99510300e-01
4.81296717e-04 -3.35399296e+01 1.08869974e+01 2.20170945e+01 8.16082447e-01
4.97671323e-04 -2.97958813e+01 1.09761971e+01 1.83352555e+01 6.50361088e-01
5.14474514e-04 -2.63675603e+01 1.10682616e+01 1.49482382e+01 5.03294853e-01
5.31708483e-04 -2.32909958e+01 1.11671517e+01 1.18798695e+01 3.77307605e-01
5.49374167e-04 -2.06952074e+01 1.12718504e+01 9.27187755e+00 2.73849361e-01
5.67471018e-04 -1.86082439e+01 1.13797844e+01 7.14146520e+00 1.92236557e-01
5.85999240e-04 -1.69496319e+01 1.14839605e+01 5.43020045e+00 1.30370051e-01
6.04958420e-04 -1.56718058e+01 1.15773645e+01 4.09275542e+00 8.56368791e-02
6.24343513e-04 -1.47000922e+01 1.16643138e+01 3.05419367e+00 5.47087940e-02
6.44150466e-04 -1.39672915e+01 1.17448533e+01 2.25388680e+00 3.37397223e-02
6.64383690e-04 -1.34524639e+01 1.18128832e+01 1.67897346e+00 1.99319611e-02
6.85042682e-04 -1.31031882e+01 1.18705600e+01 1.27405744e+00 1.14254211e-02
7.06109870e-04 -1.28628650e+01 1.19167832e+01 9.86735797e-01 6.38139150e-03
7.27579810e-04 -1.27098592e+01 1.19542944e+01 7.96977097e-01 3.42097754e-03
7.49481182e-04 -1.26129787e+01 1.19843979e+01 6.65343299e-01 1.77324316e-03
7.71810991e-04 -1.25455910e+01 1.20054083e+01 5.75798069e-01 8.26643858e-04
7.94449568e-04 -1.25007783e+01 1.20195815e+01 5.13708219e-01 2.97076006e-04
8.17206434e-04 -1.24677422e+01 1.20283590e+01 4.69059818e-01 1.34316017e-04
8.39962178e-04 -1.24386016e+01 1.20329409e+01 4.32546481e-01 1.44310443e-04
8.62716323e-04 -1.24128986e+01 1.20339504e+01 4.02153268e-01 6.63410210e-05
8.85502386e-04 -1.23889645e+01 1.20322679e+01 3.78080178e-01 -2.00890552e-05
9.08319513e-04 -1.23648609e+01 1.20283499e+01 3.55392298e-01 5.32169490e-05
9.31152879e-04 -1.23406800e+01 1.20225775e+01 3.33896938e-01 9.77756458e-05
9.54003714e-04 -1.23165261e+01 1.20152777e+01 3.15248262e-01 1.48759125e-05
9.76878378e-04 -1.22926334e+01 1.20066155e+01 2.97399480e-01 -1.93950545e-05
9.99775088e-04 -1.22687241e+01 1.19967861e+01 2.80638073e-01 2.89379142e-05
1.02269087e-03 -1.22446245e+01 1.19858936e+01 2.65214775e-01 3.93399736e-05
1.04562672e-03 -1.22205099e+01 1.19740647e+01 2.50626669e-01 1.53675280e-05
1.06858330e-03 -1.21964157e+01 1.19613623e+01 2.36827010e-01 1.48626899e-05
1.09155958e-03 -1.21722663e+01 1.19478733e+01 2.23858991e-01 2.16811357e-05
1.11455508e-03 -1.21480891e+01 1.19336460e+01 2.11669236e-01 1.66399345e-05
1.13756997e-03 -1.21238841e+01 1.19187382e+01 2.00098940e-01 1.02914464e-05
1.16060396e-03 -1.20996508e+01 1.19031903e+01 1.89167764e-01 7.75806698e-06
1.18365666e-03 -1.20753889e+01 1.18870424e+01 1.78831239e-01 3.83355150e-06
1.20672800e-03 -1.20510979e+01 1.18703301e+01 1.69049352e-01 -1.84321889e-06
1.22981783e-03 -1.20267795e+01 1.18530827e+01 1.59777732e-01 -6.69205374e-06
1.25292594e-03 -1.20024344e+01 1.18353297e+01 1.51001005e-01 -1.03858461e-05
1.27605215e-03 -1.19780631e+01 1.18170944e+01 1.42689575e-01 -1.30757691e-05
1.29919630e-03 -1.19536650e+01 1.17984009e+01 1.34815095e-01 -1.40198559e-05
1.32235820e-03 -1.19292400e+01 1.17792688e+01 1.27357699e-01 -1.28190420e-05
1.34553768e-03 -1.19047859e+01 1.17597179e+01 1.20293758e-01 -9.70062963e-06
1.36873455e-03 -1.18803014e+01 1.17397663e+01 1.13604532e-01 -5.08391997e-06
1.39194865e-03 -1.18557829e+01 1.17194299e+01 1.07267648e-01 4.11254221e-07
1.41517978e-03 -1.18312284e+01 1.16987248e+01 1.01267306e-01 5.97582114e-06
1.43842777e-03 -1.18066343e+01 1.16776643e+01 9.55840792e-02 1.08315745e-05
1.46169243e-03 -1.17819986e+01 1.16562630e+01 9.02031990e-02 1.43991773e-05
1.48497358e-03 -1.17573188e+01 1.16345322e+01 8.51084772e-02 1.63658312e-05
1.50827104e-03 -1.17325938e+01 1.16124849e+01 8.02865313e-02 1.67279225e-05
1.53158461e-03 -1.17078222e+01 1.15901313e+01 7.57236040e-02 1.57443249e-05
1.55491412e-03 -1.16830032e+01 1.15674828e+01 7.14073561e-02 1.38419938e-05
1.57825938e-03 -1.16581357e+01 1.15445484e+01 6.73257247e-02 1.14925964e-05
1.60162020e-03 -1.16332183e+01 1.15213378e+01 6.34671405e-02 9.11310861e-06
1.62499640e-03 -1.16082498e+01 1.14978595e+01 5.98206335e-02 6.99627798e-06
1.64838778e-03 -1.15832285e+01 1.14741221e+01 5.63754073e-02 5.29237706e-06
1.67179418e-03 -1.15581529e+01 1.14501341e+01 5.31213687e-02 4.02698488e-06
1.69521540e-03 -1.15330208e+01 1.14259028e+01 5.00485717e-02 3.14438679e-06
1.71865126e-03 -1.15078304e+01 1.14014352e+01 4.71477582e-02 2.55171481e-06
1.74210158e-03 -1.14825797e+01 1.13767376e+01 4.44098985e-02 2.15448630e-06
1.76556617e-03 -1.14572669e+01 1.13518167e+01 4.18265577e-02 1.87857699e-06
1.78904484e-03 -1.14318906e+01 1.13266788e+01 3.93895911e-02 1.67510840e-06
1.81253741e-03 -1.14064494e+01 1.13013306e+01 3.70913212e-02 1.51577592e-06
1.83604369e-03 -1.13809420e+01 1.12757781e+01 3.49243812e-02 1.38556958e-06
1.85956350e-03 -1.13553670e+01 1.12500267e+01 3.28817819e-02 1.27750074e-06
1.88309665e-03 -1.13297234e+01 1.12240816e+01 3.09568599e-02 1.18577907e-06
1.90664295e-03 -1.13040099e+01 1.11979479e+01 2.91432705e-02 1.10449570e-06
1.93020220e-03 -1.12782257e+01 1.11716308e+01 2.74349815e-02 1.02949117e-06
1.95377423e-03 -1.12523702e+01 1.11451355e+01 2.58262450e-02 9.59103171e-07
1.97735885e-03 -1.12264427e+01 1.11184672e+01 2.43116069e-02 8.92696630e-07
2.00095586e-03 -1.12004428e+01 1.10916306e+01 2.28858728e-02 8.30585886e-07
2.02456507e-03 -1.11743699e+01 1.10646298e+01 2.15441151e-02 7.73329066e-07
2.04818630e-03 -1.11482236e+01 1.10374691e+01 2.02816451e-02 7.20286552e-07
2.07181935e-03 -1.11220038e+01 1.10101526e+01 1.90940149e-02 6.70365205e-07
2.09546403e-03 -1.10957105e+01 1.09826852e+01 1.79770012e-02 6.23555289e-07
2.11912015e-03 -1.10693442e+01 1.09550716e+01 1.69266037e-02 5.80052154e-07
2.14278752e-03 -1.10429052e+01 1.09273163e+01 1.59390279e-02 5.39246083e-07
2.16646595e-03 -1.10163939e+01 1.08994236e+01 1.50106758e-02 5.00753964e-07
2.19015524e-03 -1.09898107e+01 1.08713973e+01 1.41381371e-02 4.64692623e-07
2.21385520e-03 -1.09631563e+01 1.08432413e+01 1.33181805e-02 4.31120873e-07
2.23756563e-03 -1.09364314e+01 1.08149593e+01 1.25477482e-02 3.99955155e-07
2.26128635e-03 -1.09096370e+01 1.07865556e+01 1.18239483e-02 3.71032291e-07
2.28501716e-03 -1.08827743e+01 1.07580344e+01 1.11440462e-02 3.43697053e-07
2.30875787e-03 -1.08558446e+01 1.07294001e+01 1.05054556e-02 3.17458021e-07
2.33250827e-03 -1.08288491e+01 1.07006566e+01 9.90573207e-03 2.92840425e-07
2.35626818e-03 -1.08017893e+01 1.06718077e+01 9.34256564e-03 2.70406225e-07
2.38003740e-03 -1.07746666e+01 1.06428572e+01 8.81377443e-03 2.49678756e-07
2.40381574e-03 -1.07474828e+01 1.06138090e+01 8.31729798e-03 2.29793636e-07
2.42760300e-03 -1.07202398e+01 1.05846674e+01 7.85119213e-03 2.10462165e-07
2.45139897e-03 -1.06929394e+01 1.05554367e+01 7.41362326e-03 1.92091134e-07
2.47520348e-03 -1.06655836e+01 1.05261207e+01 7.00286253e-03 1.75099109e-07
2.49901631e-03 -1.06381746e+01 1.04967234e+01 6.61727911e-03 1.59310707e-07
2.52283728e-03 -1.06107144e+01 1.04672485e+01 6.25533664e-03 1.44199072e-07
2.54666619e-03 -1.05832054e+01 1.04376999e+01 5.91558674e-03 1.29695536e-07
2.57050283e-03 -1.05556497e+01 1.04080814e+01 5.59666630e-03 1.16205601e-07
2.59434701e-03 -1.05280498e+01 1.03783968e+01 5.29729134e-03 1.03763132e-07
2.61819853e-03 -1.05004082e+01 1.03486500e+01 5.01625416e-03 9.17118040e-08
2.64205720e-03 -1.04727274e+01 1.03188451e+01 4.75241793e-03 7.95572150e-08
2.66592281e-03 -1.04450103e+01 1.02889865e+01 4.50471347e-03 6.75649180e-08
2.68979518e-03 -1.04172596e+01 1.02590780e+01 4.27213603e-03 5.62540537e-08
2.71367408e-03 -1.03894780e+01 1.02291235e+01 4.05374071e-03 4.56824510e-08
2.73755934e-03 -1.03616681e+01 1.01991266e+01 3.84863892e-03 3.54861188e-08
2.76145074e-03 -1.03338328e+01 1.01690910e+01 3.65599606e-03 2.54518696e-08
2.78534810e-03 -1.03059750e+01 1.01390205e+01 3.47502846e-03 1.57263084e-08
2.80925120e-03 -1.02780975e+01 1.01089191e+01 3.30500009e-03 6.36014158e-09
2.83315986e-03 -1.02502036e+01 1.00787908e+01 3.14522052e-03 -2.89225438e-09
2.85707386e-03 -1.02222960e+01 1.00486394e+01 2.99504148e-03 -1.21561082e-08
2.88099301e-03 -1.01943777e+01 1.00184684e+01 2.85385505e-03 -2.12285767e-08
2.90491711e-03 -1.01664519e+01 9.98828163e+00 2.72109069e-03 -2.99585109e-08
2.92884596e-03 -1.01385214e+01 9.95808269e+00 2.59621405e-03 -3.85277705e-08
2.95277935e-03 -1.01105895e+01 9.92787538e+00 2.47872329e-03 -4.71545789e-08
2.97671709e-03 -1.00826590e+01 9.89766343e+00 2.36814854e-03 -5.57670158e-08
3.00065897e-03 -1.00547332e+01 9.86745043e+00 2.26404873e-03 -6.41877186e-08
3.02460480e-03 -1.00268151e+01 9.83723988e+00 2.16601185e-03 -7.25054968e-08
3.04855436e-03 -9.99890761e+00 9.80703536e+00 2.07365124e-03 -8.07778399e-08
3.07250747e-03 -9.97101401e+00 9.77684056e+00 1.98660362e-03 -8.90736212e-08
3.09646391e-03 -9.94313736e+00 9.74665919e+00 1.90453210e-03 -9.78255796e-08
3.12042349e-03 -9.91528070e+00 9.71649471e+00 1.82712091e-03 -1.06957966e-07
3.14438601e-03 -9.88744697e+00 9.68635028e+00 1.75407213e-03 -1.14958353e-07
3.16835125e-03 -9.85963909e+00 9.65622898e+00 1.68510123e-03 -1.21786883e-07
3.19231903e-03 -9.83186004e+00 9.62613409e+00 1.61995628e-03 -1.30796295e-07
3.21628913e-03 -9.80411282e+00 9.59606910e+00 1.55840011e-03 -1.42746471e-07
3.24026136e-03 -9.77640047e+00 9.56603755e+00 1.50019311e-03 -1.49498485e-07
3.26423551e-03 -9.74872595e+00 9.53604280e+00 1.44510357e-03 -1.51354814e-07
3.28821138e-03 -9.72109216e+00 9.50608794e+00 1.39298064e-03 -1.61701931e-07
3.31218877e-03 -9.69350183e+00 9.47617595e+00 1.34367137e-03 -1.84265233e-07
3.33616747e-03 -9.66595773e+00 9.44630980e+00 1.29687509e-03 -1.92268788e-07
3.36014729e-03 -9.63846270e+00 9.41649254e+00 1.25243657e-03 -1.87294466e-07
3.38412801e-03 -9.61101954e+00 9.38672709e+00 1.21034370e-03 -1.98779083e-07
3.40810944e-03 -9.58363083e+00 9.35701623e+00 1.17040958e-03 -2.12135439e-07
3.43209138e-03 -9.55629917e+00 9.32736276e+00 1.13244055e-03 -2.20590310e-07
3.45607362e-03 -9.52902723e+00 9.29776956e+00 1.09632907e-03 -2.30449516e-07
3.48005596e-03 -9.50181762e+00 9.26823947e+00 1.06197945e-03 -2.39580222e-07
3.50403819e-03 -9.47467285e+00 9.23877513e+00 1.02928634e-03 -2.49601501e-07
3.52802011e-03 -9.44759535e+00 9.20937902e+00 9.98134555e-04 -2.59269739e-07
3.55200153e-03 -9.42058748e+00 9.18005362e+00 9.68435000e-04 -2.68870204e-07
3.57598223e-03 -9.39365162e+00 9.15080141e+00 9.40101423e-04 -2.78612699e-07
3.59996202e-03 -9.36679007e+00 9.12162480e+00 9.13052130e-04 -2.88534370e-07
3.62394069e-03 -9.34000508e+00 9.09252612e+00 8.87208437e-04 -2.98479821e-07
3.64791804e-03 -9.31329890e+00 9.06350775e+00 8.62499264e-04 -3.08530102e-07
3.67189386e-03 -9.28667371e+00 9.03457205e+00 8.38857899e-04 -3.18754419e-07
3.69586796e-03 -9.26013162e+00 9.00572126e+00 8.16221818e-04 -3.29095659e-07
3.71984013e-03 -9.23367469e+00 8.97695753e+00 7.94532935e-04 -3.39488867e-07
3.74381018e-03 -9.20730491e+00 8.94828296e+00 7.73736892e-04 -3.49905959e-07
3.76777788e-03 -9.18102423e+00 8.91969954e+00 7.53783474e-04 -3.60325513e-07
3.79174305e-03 -9.15483448e+00 8.89120905e+00 7.34624220e-04 -3.70703516e-07
3.81570549e-03 -9.12873744e+00 8.86281321e+00 7.16214568e-04 -3.81072378e-07
3.83966498e-03 -9.10273485e+00 8.83451374e+00 6.98511985e-04 -3.91467676e-07
3.86362133e-03 -9.07682845e+00 8.80631247e+00 6.81478114e-04 -4.01931655e-07
3.88757434e-03 -9.05101994e+00 8.77821130e+00 6.65076617e-04 -4.12555702e-07
3.91152380e-03 -9.02531102e+00 8.75021211e+00 6.49274319e-04 -4.23354950e-07
3.93546952e-03 -8.99970325e+00 8.72231659e+00 6.34039852e-04 -4.34202298e-07
3.95941128e-03 -8.97419811e+00 8.69452621e+00 6.19343572e-04 -4.44959173e-07
3.98334890e-03 -8.94879701e+00 8.66684237e+00 6.05157963e-04 -4.55644473e-07
4.00728216e-03 -8.92350136e+00 8.63926655e+00 5.91456621e-04 -4.66403774e-07
4.03121087e-03 -8.89831254e+00 8.61180023e+00 5.78214788e-04 -4.77251374e-07
4.05513483e-03 -8.87323180e+00 8.58444470e+00 5.65409516e-04 -4.88028794e-07
4.07905383e-03 -8.84826031e+00 8.55720093e+00 5.53018790e-04 -4.98584293e-07
4.10296768e-03 -8.82339916e+00 8.53006988e+00 5.41022677e-04 -5.08938964e-07
4.12687617e-03 -8.79864948e+00 8.50305268e+00 5.29402687e-04 -5.19300693e-07
4.15077910e-03 -8.77401240e+00 8.47615065e+00 5.18141583e-04 -5.29842383e-07
4.17467628e-03 -8.74948903e+00 8.44936510e+00 5.07223714e-04 -5.40536623e-07
4.19856750e-03 -8.72508038e+00 8.42269719e+00 4.96633158e-04 -5.51207705e-07
4.22245256e-03 -8.70078737e+00 8.39614783e+00 4.86355127e-04 -5.61701475e-07
4.24633127e-03 -8.67661083e+00 8.36971778e+00 4.76375472e-04 -5.71993777e-07
4.27020342e-03 -8.65255154e+00 8.34340770e+00 4.66681084e-04 -5.82117584e-07
4.29406882e-03 -8.62861022e+00 8.31721826e+00 4.57259903e-04 -5.92136384e-07
4.31792727e-03 -8.60478759e+00 8.29115020e+00 4.48101054e-04 -6.02110886e-07
4.34177857e-03 -8.58108440e+00 8.26520439e+00 4.39193495e-04 -6.12093201e-07
4.36562251e-03 -8.55750138e+00 8.23938176e+00 4.30527307e-04 -6.22107677e-07
4.38945891e-03 -8.53403917e+00 8.21368308e+00 4.22092787e-04 -6.32130505e-07
4.41328756e-03 -8.51069833e+00 8.18810893e+00 4.13880823e-04 -6.42099797e-07
4.43710826e-03 -8.48747933e+00 8.16265970e+00 4.05883438e-04 -6.51963056e-07
4.46092083e-03 -8.46438255e+00 8.13733565e+00 3.98092361e-04 -6.61720018e-07
4.48472506e-03 -8.44140835e+00 8.11213699e+00 3.90499839e-04 -6.71537855e-07
4.50852075e-03 -8.41855710e+00 8.08706400e+00 3.83098309e-04 -6.81666399e-07
4.53230771e-03 -8.39582919e+00 8.06211723e+00 3.75881002e-04 -6.92270372e-07
