VARIABLES="Y/c","convection","viscous",pressure gradient",Reynolds stress"
0.00000000e+00 0.00000000e+00 2.91994280e+00 1.25580141e+00 -2.67097224e+00
1.29807645e-06 -4.28698611e-03 2.92186269e+00 -2.25674562e+00 -6.77073187e-01
2.64556361e-06 -7.59267016e-03 2.92208672e+00 -6.66324813e+00 3.56935488e+00
4.04423812e-06 -1.89213234e-02 2.92190538e+00 -1.62676831e+01 1.36724129e+01
5.49593197e-06 -3.15076267e-02 2.92197590e+00 -2.88414263e+01 2.56591608e+01
7.00253345e-06 -5.09331657e-02 2.92180202e+00 -4.34422028e+01 4.08413017e+01
8.56598814e-06 -7.24703653e-02 2.92175495e+00 -5.78716292e+01 5.49092730e+01
1.01882997e-05 -9.92955202e-02 2.92155005e+00 -7.03128977e+01 6.76438403e+01
1.18715309e-05 -1.28419842e-01 2.92139859e+00 -7.94100058e+01 7.66691683e+01
1.36178039e-05 -1.61599222e-01 2.92116959e+00 -8.46357033e+01 8.19953091e+01
1.54293015e-05 -1.97093182e-01 2.92097734e+00 -8.60427287e+01 8.34502260e+01
1.73082672e-05 -2.35532522e-01 2.92079489e+00 -8.42374481e+01 8.16811782e+01
1.92570058e-05 -2.75711520e-01 2.92066855e+00 -7.99432567e+01 7.74550894e+01
2.12778836e-05 -3.17518780e-01 2.92062644e+00 -7.40307181e+01 7.15677009e+01
2.33733287e-05 -3.60078627e-01 2.92066283e+00 -6.71811293e+01 6.47765606e+01
2.55458308e-05 -4.02940375e-01 2.92082613e+00 -6.00303880e+01 5.76521364e+01
2.77979413e-05 -4.45723714e-01 2.92108259e+00 -5.29715486e+01 5.06392962e+01
3.01322724e-05 -4.88522560e-01 2.92148164e+00 -4.63204563e+01 4.40172895e+01
3.25514969e-05 -5.31987200e-01 2.92196679e+00 -4.02200258e+01 3.79560325e+01
3.50583472e-05 -5.76514323e-01 2.92255713e+00 -3.47602509e+01 3.25298073e+01
3.76556142e-05 -6.22047203e-01 2.92317234e+00 -2.99459535e+01 2.77529604e+01
4.03461458e-05 -6.67411290e-01 2.92381319e+00 -2.57565796e+01 2.36004928e+01
4.31328452e-05 -7.11105262e-01 2.92442506e+00 -2.21481160e+01 2.00267331e+01
4.60186690e-05 -7.51377743e-01 2.92503245e+00 -1.90621881e+01 1.69750842e+01
4.90066244e-05 -7.87095118e-01 2.92563685e+00 -1.64438221e+01 1.43843594e+01
5.20997665e-05 -8.17474366e-01 2.92631099e+00 -1.42259385e+01 1.21929117e+01
5.53011951e-05 -8.42277170e-01 2.92713177e+00 -1.23573059e+01 1.03423708e+01
5.86140508e-05 -8.61406972e-01 2.92819912e+00 -1.07780383e+01 8.77918577e+00
6.20415106e-05 -8.75676800e-01 2.92955213e+00 -9.44709713e+00 7.45650811e+00
6.55867832e-05 -8.87276160e-01 2.93115188e+00 -8.31882316e+00 6.33625465e+00
6.92531033e-05 -9.00057481e-01 2.93288415e+00 -7.36383499e+00 5.38760619e+00
7.30437257e-05 -9.18378729e-01 2.93457160e+00 -6.54652536e+00 4.58431837e+00
7.69619183e-05 -9.44592363e-01 2.93600764e+00 -5.84651660e+00 3.90546017e+00
8.10109547e-05 -9.76875306e-01 2.93701994e+00 -5.24672843e+00 3.33478824e+00
8.51941056e-05 -1.01145265e+00 2.93754566e+00 -4.73671015e+00 2.85568752e+00
8.95146297e-05 -1.04640700e+00 2.93763126e+00 -4.29867676e+00 2.45017295e+00
9.39757635e-05 -1.08142632e+00 2.93730078e+00 -3.92028906e+00 2.10461100e+00
9.85807105e-05 -1.11231605e+00 2.93657694e+00 -3.59822533e+00 1.81230675e+00
1.03332628e-04 -1.13094255e+00 2.93557234e+00 -3.33441547e+00 1.56554370e+00
1.08234618e-04 -1.13601640e+00 2.93465709e+00 -3.11949109e+00 1.35508711e+00
1.13289986e-04 -1.13598273e+00 2.93398845e+00 -2.94017108e+00 1.17495950e+00
1.18502647e-04 -1.13853971e+00 2.93353015e+00 -2.78531932e+00 1.02067144e+00
1.23876711e-04 -1.14449768e+00 2.93308140e+00 -2.64964177e+00 8.89655689e-01
1.29416424e-04 -1.14988936e+00 2.93268498e+00 -2.53626492e+00 7.80290102e-01
1.35126211e-04 -1.15602761e+00 2.93240093e+00 -2.44022591e+00 6.88319988e-01
1.41010679e-04 -1.17695761e+00 2.93230287e+00 -2.33910434e+00 6.07725662e-01
1.47074651e-04 -1.21975086e+00 2.93244010e+00 -2.22510462e+00 5.35852762e-01
1.53323209e-04 -1.26704392e+00 2.93291552e+00 -2.11793841e+00 4.73702189e-01
1.59761720e-04 -1.29938202e+00 2.93374465e+00 -2.03522570e+00 4.21563697e-01
1.66395860e-04 -1.31842531e+00 2.93479436e+00 -1.97346707e+00 3.77099602e-01
1.73231698e-04 -1.33523188e+00 2.93565786e+00 -1.91840304e+00 3.38298056e-01
1.80275774e-04 -1.35106493e+00 2.93588780e+00 -1.87063224e+00 3.05723255e-01
1.87535082e-04 -1.36192213e+00 2.93538172e+00 -1.83307774e+00 2.78025062e-01
1.95017115e-04 -1.36925358e+00 2.93441081e+00 -1.79890442e+00 2.52448812e-01
2.02730118e-04 -1.37408876e+00 2.93316591e+00 -1.77065124e+00 2.30136866e-01
2.10683235e-04 -1.37311590e+00 2.93187145e+00 -1.75357174e+00 2.12641821e-01
2.18886028e-04 -1.36208998e+00 2.93089696e+00 -1.74898082e+00 1.97415080e-01
2.27347627e-04 -1.34552098e+00 2.93033996e+00 -1.74961421e+00 1.81290007e-01
2.36076498e-04 -1.34551508e+00 2.92998861e+00 -1.73195353e+00 1.65177287e-01
2.45081036e-04 -1.37387128e+00 2.92974673e+00 -1.68971804e+00 1.51852558e-01
2.54370182e-04 -1.40946221e+00 2.92988366e+00 -1.64406530e+00 1.40629547e-01
2.63953556e-04 -1.43284535e+00 2.93032869e+00 -1.60916329e+00 1.29340300e-01
2.73841431e-04 -1.45043352e+00 2.93048685e+00 -1.58106139e+00 1.18232706e-01
2.84044783e-04 -1.47468266e+00 2.93009790e+00 -1.54760455e+00 1.08656808e-01
2.94575253e-04 -1.50729829e+00 2.92954275e+00 -1.50696662e+00 1.01598977e-01
3.05445297e-04 -1.53897757e+00 2.92916740e+00 -1.47093341e+00 9.60503608e-02
3.16668696e-04 -1.56305980e+00 2.92958600e+00 -1.44131764e+00 8.96165996e-02
3.28260463e-04 -1.58331065e+00 2.93053566e+00 -1.41419132e+00 8.27233939e-02
3.40235303e-04 -1.60449438e+00 2.93132416e+00 -1.39053210e+00 7.70326046e-02
3.52605832e-04 -1.63229920e+00 2.93132002e+00 -1.35810544e+00 7.22928107e-02
3.65382516e-04 -1.66885135e+00 2.93042321e+00 -1.31618195e+00 6.80473979e-02
3.78575119e-04 -1.70489256e+00 2.92857120e+00 -1.27614506e+00 6.30109252e-02
3.92193740e-04 -1.73691802e+00 2.92698023e+00 -1.23517634e+00 5.62618204e-02
4.06248688e-04 -1.76885710e+00 2.92674836e+00 -1.19498666e+00 5.11608131e-02
4.20750116e-04 -1.78804387e+00 2.92813712e+00 -1.17872811e+00 4.98144426e-02
4.35708063e-04 -1.78030515e+00 2.93036902e+00 -1.18859220e+00 4.83193871e-02
4.51132590e-04 -1.76742695e+00 2.93220098e+00 -1.19595274e+00 4.42680838e-02
4.67033704e-04 -1.78431107e+00 2.93319059e+00 -1.17685049e+00 3.98639753e-02
4.83421246e-04 -1.82952940e+00 2.93354393e+00 -1.12951803e+00 3.64920806e-02
5.00304876e-04 -1.87797883e+00 2.93352668e+00 -1.07799412e+00 3.39459099e-02
5.17694122e-04 -1.91426910e+00 2.93292729e+00 -1.03952276e+00 3.21492372e-02
5.35598352e-04 -1.92849970e+00 2.93276400e+00 -1.02377304e+00 3.03458083e-02
5.54026592e-04 -1.92608763e+00 2.93349632e+00 -1.02688059e+00 2.72499319e-02
5.72987539e-04 -1.93521061e+00 2.93392103e+00 -1.01275142e+00 2.35210195e-02
5.92489924e-04 -1.96120939e+00 2.93320764e+00 -9.83211946e-01 2.16049140e-02
6.12542108e-04 -1.98380535e+00 2.93308295e+00 -9.65750092e-01 2.11850377e-02
6.33150705e-04 -2.01034520e+00 2.93345883e+00 -9.35920877e-01 1.99932863e-02
6.54320158e-04 -2.05804419e+00 2.93273852e+00 -8.82676868e-01 1.89005376e-02
6.76053340e-04 -2.10991587e+00 2.93089031e+00 -8.32824518e-01 1.91588330e-02
6.98351096e-04 -2.14437627e+00 2.92937878e+00 -7.98438015e-01 1.85350879e-02
7.21212638e-04 -2.16527366e+00 2.92858982e+00 -7.71771587e-01 1.56223029e-02
7.44637950e-04 -2.18405130e+00 2.92905390e+00 -7.46173060e-01 1.27779863e-02
7.68625590e-04 -2.20773340e+00 2.93022301e+00 -7.26159352e-01 1.14828014e-02
7.93168293e-04 -2.24513946e+00 2.93046144e+00 -6.91024305e-01 9.90411458e-03
8.18261074e-04 -2.29469422e+00 2.93047372e+00 -6.33808558e-01 7.58632414e-03
8.43910254e-04 -2.32943991e+00 2.93029121e+00 -5.93918244e-01 6.78470847e-03
8.70115629e-04 -2.33265721e+00 2.92908642e+00 -5.96677275e-01 7.12933378e-03
8.96856001e-04 -2.33536353e+00 2.92674539e+00 -5.94938927e-01 6.00762588e-03
9.24126976e-04 -2.37520043e+00 2.92381796e+00 -5.37869024e-01 4.74494958e-03
9.51965864e-04 -2.43782621e+00 2.92173535e+00 -4.78485639e-01 5.96952602e-03
9.80364552e-04 -2.48834977e+00 2.92128726e+00 -4.35537814e-01 7.59327772e-03
1.00916388e-03 -2.52892081e+00 2.91986416e+00 -3.95780151e-01 7.13904735e-03
1.03811795e-03 -2.57123907e+00 2.91797377e+00 -3.45577825e-01 6.44387323e-03
1.06707579e-03 -2.60497761e+00 2.91742495e+00 -3.15068028e-01 6.90037828e-03
1.09603830e-03 -2.62943701e+00 2.91836495e+00 -2.93159252e-01 6.47081375e-03
1.12504782e-03 -2.66831213e+00 2.92045931e+00 -2.37408313e-01 4.41649271e-03
1.15410267e-03 -2.72491342e+00 2.92241272e+00 -2.01983281e-01 2.77519482e-03
1.18318419e-03 -2.76841431e+00 2.92394864e+00 -1.58928958e-01 1.85760562e-03
1.21229421e-03 -2.78954847e+00 2.92532007e+00 -1.32683464e-01 7.05978913e-04
1.24144056e-03 -2.81724842e+00 2.92712480e+00 -1.13368206e-01 5.61005298e-04
1.27062060e-03 -2.86461298e+00 2.92762829e+00 -6.43071543e-02 2.19276376e-03
1.29983024e-03 -2.90700877e+00 2.92656467e+00 -2.89845799e-02 4.06072510e-03
1.32907043e-03 -2.92774267e+00 2.92541816e+00 -4.04509359e-03 4.57450059e-03
1.35834166e-03 -2.93539283e+00 2.92539849e+00 5.92414178e-03 4.03468830e-03
1.38764224e-03 -2.93972336e+00 2.92538790e+00 7.38085060e-03 3.36449279e-03
1.41697125e-03 -2.94833766e+00 2.92442054e+00 1.93287117e-02 2.52756832e-03
1.44632851e-03 -2.97326910e+00 2.92267696e+00 5.05026648e-02 2.10667520e-03
1.47571338e-03 -3.02084647e+00 2.92128453e+00 9.44535480e-02 2.51597516e-03
1.50512526e-03 -3.08352205e+00 2.92073233e+00 1.54864969e-01 2.42255608e-03
1.53456405e-03 -3.14427599e+00 2.91927767e+00 2.23081469e-01 1.49282594e-03
1.56402960e-03 -3.18750019e+00 2.91601511e+00 2.67560031e-01 1.42967351e-03
1.59352164e-03 -3.21482141e+00 2.91400031e+00 2.91634942e-01 2.49982172e-03
1.62303993e-03 -3.24587837e+00 2.91522196e+00 3.24810799e-01 3.25968107e-03
1.65258430e-03 -3.29271392e+00 2.91731409e+00 3.72918020e-01 3.24475541e-03
1.68215452e-03 -3.33888799e+00 2.91783591e+00 4.17203490e-01 2.73563907e-03
1.71175036e-03 -3.35792968e+00 2.91695602e+00 4.39786847e-01 2.09826585e-03
1.74137162e-03 -3.35262512e+00 2.91571465e+00 4.36738790e-01 2.05085859e-03
1.77101805e-03 -3.35078890e+00 2.91428224e+00 4.31565260e-01 2.22737625e-03
1.80068943e-03 -3.36273919e+00 2.91228221e+00 4.48839742e-01 1.57129367e-03
1.83038551e-03 -3.37578192e+00 2.90994562e+00 4.68678279e-01 9.16318413e-04
1.86010605e-03 -3.38409612e+00 2.90820256e+00 4.73988823e-01 1.48980148e-03
1.88985080e-03 -3.40083038e+00 2.90735956e+00 4.90048571e-01 2.38904776e-03
1.91961951e-03 -3.44279725e+00 2.90678652e+00 5.35599867e-01 2.53626291e-03
1.94941195e-03 -3.50733304e+00 2.90677263e+00 5.99797243e-01 2.33488396e-03
1.97922786e-03 -3.57009250e+00 2.90644302e+00 6.64370273e-01 2.40020036e-03
2.00906700e-03 -3.60947548e+00 2.90552028e+00 7.04970544e-01 2.61756094e-03
2.03892912e-03 -3.62776293e+00 2.90491192e+00 7.22909988e-01 2.38205383e-03
2.06881396e-03 -3.64452379e+00 2.90489319e+00 7.43762956e-01 1.66518351e-03
2.09872130e-03 -3.67312015e+00 2.90457704e+00 7.72007705e-01 1.21481282e-03
2.12865091e-03 -3.71187392e+00 2.90273065e+00 8.10594743e-01 1.27399084e-03
2.15860255e-03 -3.75295369e+00 2.89962305e+00 8.58749287e-01 1.77186180e-03
2.18857599e-03 -3.79062526e+00 2.89703127e+00 8.96969552e-01 2.73060457e-03
2.21857102e-03 -3.82640049e+00 2.89541910e+00 9.31803896e-01 3.33753300e-03
2.24858739e-03 -3.86468368e+00 2.89381968e+00 9.76582132e-01 2.99621897e-03
2.27862488e-03 -3.90250035e+00 2.89244499e+00 1.01692833e+00 2.49771350e-03
2.30868325e-03 -3.93352126e+00 2.89126973e+00 1.04855556e+00 2.50546749e-03
2.33876227e-03 -3.95268068e+00 2.88962654e+00 1.07094270e+00 2.91276267e-03
2.36886171e-03 -3.95272679e+00 2.88711102e+00 1.07145258e+00 3.49144444e-03
2.39898134e-03 -3.93862233e+00 2.88424630e+00 1.05785965e+00 3.76435372e-03
2.42912091e-03 -3.93943296e+00 2.88221234e+00 1.05983391e+00 3.34689680e-03
2.45928020e-03 -3.97663902e+00 2.88110443e+00 1.09650664e+00 2.61037723e-03
2.48945897e-03 -4.03411584e+00 2.88036928e+00 1.15177416e+00 2.26395624e-03
2.51965697e-03 -4.08342435e+00 2.87992005e+00 1.19896256e+00 2.57047954e-03
2.54987397e-03 -4.11552588e+00 2.87926835e+00 1.22911095e+00 3.16027666e-03
2.58010974e-03 -4.13745171e+00 2.87814721e+00 1.25043426e+00 3.48251067e-03
2.61036403e-03 -4.15913494e+00 2.87684641e+00 1.27264509e+00 3.43067524e-03
2.64063659e-03 -4.18614883e+00 2.87624633e+00 1.29863559e+00 3.39397036e-03
2.67092720e-03 -4.21626905e+00 2.87537534e+00 1.32959916e+00 3.72588840e-03
2.70123561e-03 -4.24250218e+00 2.87317642e+00 1.35577228e+00 4.17672889e-03
2.73156157e-03 -4.26481550e+00 2.87049169e+00 1.38045673e+00 4.11160727e-03
2.76190485e-03 -4.28815203e+00 2.86926338e+00 1.40797008e+00 3.62270842e-03
2.79226520e-03 -4.30995852e+00 2.86925793e+00 1.42927327e+00 3.37802277e-03
2.82264238e-03 -4.32895017e+00 2.86879592e+00 1.44763215e+00 3.25559202e-03
2.85303614e-03 -4.35170368e+00 2.86732582e+00 1.47420411e+00 2.80952342e-03
2.88344624e-03 -4.38103687e+00 2.86551610e+00 1.50727108e+00 2.53199065e-03
2.91387243e-03 -4.41146505e+00 2.86397615e+00 1.53896471e+00 3.02100683e-03
2.94431447e-03 -4.43468104e+00 2.86299858e+00 1.56277224e+00 3.76876469e-03
2.97477212e-03 -4.45001237e+00 2.86161100e+00 1.58024381e+00 3.95493639e-03
3.00524513e-03 -4.46624168e+00 2.85955441e+00 1.60065582e+00 3.85607343e-03
3.03573325e-03 -4.48487015e+00 2.85758864e+00 1.62016448e+00 4.35521642e-03
3.06623624e-03 -4.49688704e+00 2.85599857e+00 1.62835960e+00 5.18570882e-03
3.09675385e-03 -4.50186109e+00 2.85492672e+00 1.63434449e+00 5.28959585e-03
3.12728583e-03 -4.50935262e+00 2.85429965e+00 1.64240345e+00 4.64898622e-03
3.15783193e-03 -4.52203271e+00 2.85354227e+00 1.65348930e+00 4.08366822e-03
3.18839190e-03 -4.53393975e+00 2.85289799e+00 1.66649262e+00 4.07244752e-03
3.21896550e-03 -4.54073707e+00 2.85288022e+00 1.67078506e+00 4.46735230e-03
3.24955247e-03 -4.54517733e+00 2.85349564e+00 1.67378638e+00 4.83018814e-03
3.28015257e-03 -4.55242145e+00 2.85390652e+00 1.68162542e+00 5.15267831e-03
3.31076554e-03 -4.56127856e+00 2.85335050e+00 1.68669022e+00 5.48350057e-03
3.34139114e-03 -4.56960269e+00 2.85222183e+00 1.69475664e+00 5.30077505e-03
3.37202910e-03 -4.58132102e+00 2.85116636e+00 1.71016199e+00 4.66529890e-03
3.40267919e-03 -4.59580128e+00 2.85015763e+00 1.72511724e+00 4.51146495e-03
3.43334114e-03 -4.60242947e+00 2.84891327e+00 1.73094767e+00 5.08665981e-03
3.46401471e-03 -4.59537879e+00 2.84762191e+00 1.72446089e+00 5.71146886e-03
3.49469964e-03 -4.58431444e+00 2.84621155e+00 1.71533156e+00 5.92958261e-03
3.52539568e-03 -4.58114150e+00 2.84465404e+00 1.71481423e+00 5.86416072e-03
3.55610258e-03 -4.58286928e+00 2.84366364e+00 1.71897045e+00 5.77614724e-03
3.58682007e-03 -4.57997245e+00 2.84309398e+00 1.71733747e+00 5.78433367e-03
3.61754791e-03 -4.57376045e+00 2.84244674e+00 1.71222642e+00 5.90820606e-03
3.64828584e-03 -4.57047530e+00 2.84188262e+00 1.70920361e+00 6.16240407e-03
3.67903361e-03 -4.56907580e+00 2.84120882e+00 1.70802375e+00 6.57974073e-03
3.70979095e-03 -4.56436776e+00 2.84036176e+00 1.70423038e+00 7.19510698e-03
3.74055762e-03 -4.55182359e+00 2.83957372e+00 1.69168522e+00 7.89574824e-03
3.77133336e-03 -4.53121443e+00 2.83917525e+00 1.67167486e+00 8.40455123e-03
3.80211790e-03 -4.50867209e+00 2.83908464e+00 1.64961514e+00 8.60198879e-03
3.83291101e-03 -4.48865873e+00 2.83885658e+00 1.62949606e+00 8.61562288e-03
3.86371241e-03 -4.46748018e+00 2.83841549e+00 1.60897997e+00 8.63153743e-03
3.89452185e-03 -4.43989696e+00 2.83782401e+00 1.58202963e+00 8.80223136e-03
3.92533907e-03 -4.40878672e+00 2.83711233e+00 1.55129749e+00 9.14975553e-03
3.95616382e-03 -4.38129846e+00 2.83672229e+00 1.52392611e+00 9.57432317e-03
3.98699583e-03 -4.35633733e+00 2.83662396e+00 1.49905060e+00 1.00194646e-02
4.01783485e-03 -4.32628567e+00 2.83676778e+00 1.46819022e+00 1.04215592e-02
4.04868062e-03 -4.29031797e+00 2.83698478e+00 1.43175763e+00 1.06406326e-02
4.07953288e-03 -4.25242470e+00 2.83694549e+00 1.39501703e+00 1.06983555e-02
4.11039138e-03 -4.20989185e+00 2.83678560e+00 1.35153875e+00 1.07535959e-02
4.14125584e-03 -4.15947869e+00 2.83684733e+00 1.30131575e+00 1.08600944e-02
4.17212602e-03 -4.10859037e+00 2.83692484e+00 1.24992266e+00 1.09698934e-02
4.20300165e-03 -4.06615530e+00 2.83681556e+00 1.20621851e+00 1.09591795e-02
4.23388248e-03 -4.02838963e+00 2.83694911e+00 1.16993474e+00 1.09011980e-02
4.26476824e-03 -3.98500750e+00 2.83741744e+00 1.12363059e+00 1.09827831e-02
4.29565867e-03 -3.93517955e+00 2.83811358e+00 1.07276627e+00 1.09940219e-02
4.32655351e-03 -3.88342055e+00 2.83869370e+00 1.01971507e+00 1.08492870e-02
4.35745251e-03 -3.83030429e+00 2.83900497e+00 9.64448830e-01 1.06542932e-02
4.38835540e-03 -3.77679922e+00 2.83905439e+00 9.11763360e-01 1.02783193e-02
4.41926192e-03 -3.72631399e+00 2.83924372e+00 8.61213653e-01 9.81838431e-03
4.45017181e-03 -3.68003916e+00 2.83968528e+00 8.14953758e-01 9.55439509e-03
4.48108481e-03 -3.63464975e+00 2.84009168e+00 7.68248405e-01 9.47407674e-03
4.51200066e-03 -3.58741349e+00 2.84035423e+00 7.20399419e-01 9.28267156e-03
4.54291909e-03 -3.54066346e+00 2.84065975e+00 6.73538747e-01 8.81134119e-03
4.57383985e-03 -3.49894040e+00 2.84128041e+00 6.31456665e-01 8.23081748e-03
4.60476268e-03 -3.46296896e+00 2.84207753e+00 5.94730698e-01 7.79577889e-03
4.63568730e-03 -3.42898633e+00 2.84276186e+00 5.60436145e-01 7.62181110e-03
4.66661347e-03 -3.39264893e+00 2.84327282e+00 5.23806632e-01 7.63305098e-03
4.69754092e-03 -3.35251430e+00 2.84380203e+00 4.82812207e-01 7.52617681e-03
4.72846938e-03 -3.31195021e+00 2.84443987e+00 4.42446948e-01 7.01881565e-03
4.75939861e-03 -3.27559969e+00 2.84517615e+00 4.06595343e-01 6.24142715e-03
4.79032832e-03 -3.24347711e+00 2.84588852e+00 3.74153517e-01 5.58450471e-03
4.82125827e-03 -3.21279803e+00 2.84657284e+00 3.42807334e-01 5.21162857e-03
4.85218819e-03 -3.18281663e+00 2.84719319e+00 3.12401619e-01 4.98876040e-03
4.88311782e-03 -3.15394032e+00 2.84767357e+00 2.83303199e-01 4.74256733e-03
4.91404690e-03 -3.12630175e+00 2.84810872e+00 2.55405116e-01 4.39063487e-03
4.94497517e-03 -3.10108632e+00 2.84859939e+00 2.30159198e-01 3.94275488e-03
4.97590236e-03 -3.07991806e+00 2.84914518e+00 2.09004185e-01 3.49678008e-03
5.00682821e-03 -3.06254435e+00 2.84973640e+00 1.91407168e-01 3.16325280e-03
5.03775246e-03 -3.04644832e+00 2.85032475e+00 1.74990621e-01 2.95221725e-03
5.06867486e-03 -3.02915425e+00 2.85086133e+00 1.57280461e-01 2.76767371e-03
5.09959513e-03 -3.01111971e+00 2.85131891e+00 1.39179277e-01 2.52300067e-03
5.13051302e-03 -2.99504749e+00 2.85173826e+00 1.23083627e-01 2.23264654e-03
5.16142827e-03 -2.98223218e+00 2.85217569e+00 1.09997566e-01 1.96387927e-03
5.19234061e-03 -2.97155166e+00 2.85259771e+00 9.91732798e-02 1.75636785e-03
5.22324978e-03 -2.96163549e+00 2.85295867e+00 8.89674658e-02 1.60147761e-03
5.25415553e-03 -2.95230619e+00 2.85327526e+00 7.93868831e-02 1.45291548e-03
5.28505759e-03 -2.94393755e+00 2.85357319e+00 7.10600314e-02 1.29186196e-03
5.31595570e-03 -2.93642987e+00 2.85385667e+00 6.33580654e-02 1.14658229e-03
5.34684960e-03 -2.92953476e+00 2.85410148e+00 5.61974136e-02 1.01554269e-03
5.37773903e-03 -2.92346965e+00 2.85428693e+00 5.01183316e-02 8.76487144e-04
5.40862373e-03 -2.91833136e+00 2.85440829e+00 4.50180807e-02 7.59638419e-04
5.43950344e-03 -2.91344720e+00 2.85449958e+00 4.00754408e-02 7.06068327e-04
5.47037789e-03 -2.90807608e+00 2.85461265e+00 3.44298380e-02 6.76536809e-04
5.50124684e-03 -2.90274829e+00 2.85473863e+00 2.90128597e-02 5.91963602e-04
5.53211002e-03 -2.89883305e+00 2.85484479e+00 2.52657996e-02 4.62635142e-04
5.56296717e-03 -2.89645954e+00 2.85491867e+00 2.28209632e-02 3.74052502e-04
5.59381803e-03 -2.89442761e+00 2.85496601e+00 2.06062023e-02 3.47728337e-04
5.62466235e-03 -2.89211923e+00 2.85500940e+00 1.82571087e-02 3.26253711e-04
5.65549986e-03 -2.88993179e+00 2.85504846e+00 1.60657041e-02 2.73105872e-04
5.68633030e-03 -2.88820774e+00 2.85506072e+00 1.43456669e-02 2.07221739e-04
5.71715342e-03 -2.88677293e+00 2.85503000e+00 1.29372953e-02 1.62737100e-04
5.74796896e-03 -2.88527712e+00 2.85496561e+00 1.14395429e-02 1.49641766e-04
5.77877666e-03 -2.88356968e+00 2.85488392e+00 9.74246006e-03 1.48343388e-04
5.80957626e-03 -2.88181158e+00 2.85479730e+00 8.03420312e-03 1.36327789e-04
