VARIABLES="Y/c","convection","viscous",pressure gradient",Reynolds stress"
0.00000000e+00 0.00000000e+00 8.50425504e-01 9.69311339e-02 -9.29725118e-01
3.89583535e-06 -6.23804201e-04 8.50428214e-01 -1.79012176e-01 -7.14039557e-01
7.94502360e-06 -2.42259987e-03 8.50416208e-01 -5.20960246e-01 -3.43372418e-01
1.21534973e-05 -5.66377261e-03 8.50393258e-01 -1.22654654e+00 4.03945017e-01
1.65274099e-05 -1.04561041e-02 8.50347275e-01 -2.04128920e+00 1.16448140e+00
2.10731439e-05 -1.69193446e-02 8.50284526e-01 -2.84177390e+00 2.01591113e+00
2.57973179e-05 -2.50031569e-02 8.50203677e-01 -3.47668595e+00 2.63171008e+00
3.07067949e-05 -3.46316510e-02 8.50113199e-01 -3.88426844e+00 3.05849956e+00
3.58086905e-05 -4.56469877e-02 8.50013562e-01 -4.05736160e+00 3.23779690e+00
4.11103812e-05 -5.78691072e-02 8.49910302e-01 -4.03538081e+00 3.22712504e+00
4.66195131e-05 -7.10588915e-02 8.49805654e-01 -3.86874088e+00 3.07233150e+00
5.23440104e-05 -8.49538110e-02 8.49708225e-01 -3.61175005e+00 2.82724526e+00
5.82920844e-05 -9.92970496e-02 8.49627040e-01 -3.30681674e+00 2.53546617e+00
6.44722430e-05 -1.13868327e-01 8.49572187e-01 -2.98752370e+00 2.22914642e+00
7.08932997e-05 -1.28466720e-01 8.49549127e-01 -2.67514508e+00 1.93027664e+00
7.75643832e-05 -1.42845230e-01 8.49560053e-01 -2.38367853e+00 1.65208384e+00
8.44949470e-05 -1.56679434e-01 8.49607201e-01 -2.12012805e+00 1.40170943e+00
9.16947797e-05 -1.69605721e-01 8.49694463e-01 -1.88787264e+00 1.18186050e+00
9.91740144e-05 -1.81294277e-01 8.49826446e-01 -1.68696324e+00 9.92323816e-01
1.06943139e-04 -1.91522991e-01 8.49999939e-01 -1.51556311e+00 8.31059671e-01
1.15013008e-04 -2.00254491e-01 8.50197806e-01 -1.37081993e+00 6.95042744e-01
1.23394850e-04 -2.07621528e-01 8.50387483e-01 -1.24928192e+00 5.80976052e-01
1.32100279e-04 -2.13931323e-01 8.50529005e-01 -1.14773839e+00 4.85842789e-01
1.41141310e-04 -2.19794410e-01 8.50585729e-01 -1.06259513e+00 4.06941503e-01
1.50530360e-04 -2.26047848e-01 8.50543303e-01 -9.90577945e-01 3.41684412e-01
1.60280269e-04 -2.33182174e-01 8.50419151e-01 -9.29026239e-01 2.87656117e-01
1.70404304e-04 -2.40920648e-01 8.50254908e-01 -8.76463222e-01 2.42825313e-01
1.80916170e-04 -2.48657042e-01 8.50093592e-01 -8.31488419e-01 2.05524512e-01
1.91830026e-04 -2.56061928e-01 8.49952013e-01 -7.92644138e-01 1.74262725e-01
2.03160489e-04 -2.62953929e-01 8.49807934e-01 -7.58846315e-01 1.47826686e-01
2.14922650e-04 -2.69032398e-01 8.49611844e-01 -7.30002158e-01 1.25588716e-01
2.27132080e-04 -2.74238149e-01 8.49332122e-01 -7.06096364e-01 1.07287366e-01
2.39804843e-04 -2.79474988e-01 8.48988155e-01 -6.85822356e-01 9.22903309e-02
2.52957506e-04 -2.86747385e-01 8.48627220e-01 -6.65614783e-01 7.95716472e-02
2.66607146e-04 -2.97742648e-01 8.48252396e-01 -6.42988590e-01 6.85396215e-02
2.80771361e-04 -3.11929125e-01 8.47836013e-01 -6.18851131e-01 5.92409899e-02
2.95468282e-04 -3.26718666e-01 8.47412712e-01 -5.95586356e-01 5.17379575e-02
3.10716575e-04 -3.39623608e-01 8.47137053e-01 -5.75897087e-01 4.56008752e-02
3.26535455e-04 -3.50143559e-01 8.47203179e-01 -5.60110292e-01 3.99634877e-02
3.42944688e-04 -3.59654775e-01 8.47762473e-01 -5.45464482e-01 3.43187888e-02
3.59964606e-04 -3.68963105e-01 8.48812758e-01 -5.31337905e-01 2.91057011e-02
3.77616107e-04 -3.76233866e-01 8.50276634e-01 -5.20656130e-01 2.50575774e-02
3.95920667e-04 -3.78837081e-01 8.52038248e-01 -5.16620892e-01 2.22553996e-02
4.14900337e-04 -3.77427824e-01 8.53854287e-01 -5.18517922e-01 1.99797735e-02
4.34577746e-04 -3.76339427e-01 8.55359317e-01 -5.19022180e-01 1.75375617e-02
4.54976110e-04 -3.78971445e-01 8.56368726e-01 -5.13921461e-01 1.51464164e-02
4.76119226e-04 -3.84484500e-01 8.56945639e-01 -5.07887459e-01 1.32205050e-02
4.98031472e-04 -3.90240757e-01 8.57183092e-01 -5.02132481e-01 1.14520826e-02
5.20737812e-04 -3.95465711e-01 8.57133799e-01 -4.94442695e-01 9.81046639e-03
5.44263782e-04 -4.00772747e-01 8.56719919e-01 -4.87461589e-01 8.98572208e-03
5.68635495e-04 -4.06256439e-01 8.55839564e-01 -4.81857182e-01 8.95232494e-03
5.93879626e-04 -4.12434834e-01 8.54421726e-01 -4.73678929e-01 8.74172125e-03
6.20023406e-04 -4.21388166e-01 8.52817987e-01 -4.61122335e-01 7.79779987e-03
6.47094614e-04 -4.34564475e-01 8.51563516e-01 -4.44495069e-01 6.44503801e-03
6.75121556e-04 -4.50083588e-01 8.50884751e-01 -4.26647954e-01 5.33464999e-03
7.04133052e-04 -4.63473295e-01 8.50583903e-01 -4.13139656e-01 4.83515656e-03
7.34158426e-04 -4.71102003e-01 8.50343913e-01 -4.06724064e-01 4.70198034e-03
7.65227500e-04 -4.72101646e-01 8.50069182e-01 -4.05072746e-01 4.50490418e-03
7.97370578e-04 -4.66742942e-01 8.50245637e-01 -4.08522206e-01 4.30626891e-03
8.30618410e-04 -4.56486291e-01 8.51284303e-01 -4.19403737e-01 4.29180785e-03
8.65002152e-04 -4.47475508e-01 8.53069193e-01 -4.30735083e-01 4.05098816e-03
9.00553330e-04 -4.47747181e-01 8.55325860e-01 -4.30896566e-01 3.12708073e-03
9.37303815e-04 -4.58318604e-01 8.57360225e-01 -4.18449175e-01 1.92769335e-03
9.75285779e-04 -4.72803121e-01 8.58207969e-01 -4.03603088e-01 1.17695542e-03
1.01453164e-03 -4.86048792e-01 8.57207631e-01 -3.91083402e-01 8.93043685e-04
1.05507404e-03 -4.97983668e-01 8.54736374e-01 -3.75433339e-01 8.06695418e-04
1.09694577e-03 -5.08790148e-01 8.51681490e-01 -3.59104545e-01 1.12035444e-03
1.14017974e-03 -5.14363722e-01 8.49210502e-01 -3.52424952e-01 1.85734290e-03
1.18480885e-03 -5.10679902e-01 8.47559688e-01 -3.56384263e-01 2.26110280e-03
1.23086584e-03 -5.02320740e-01 8.46654280e-01 -3.61527096e-01 1.80495678e-03
1.27838323e-03 -5.00502738e-01 8.46831168e-01 -3.60263399e-01 1.07680955e-03
1.32739329e-03 -5.09637433e-01 8.47411184e-01 -3.52948189e-01 9.01050338e-04
1.37792800e-03 -5.21059088e-01 8.47162073e-01 -3.44777237e-01 1.18376055e-03
1.43001894e-03 -5.23438088e-01 8.46368955e-01 -3.43455979e-01 1.25474619e-03
1.48369721e-03 -5.14743901e-01 8.46826078e-01 -3.50416509e-01 9.50223718e-04
1.53899333e-03 -5.00428928e-01 8.47974610e-01 -3.64677260e-01 7.20395218e-04
1.59593709e-03 -4.83999224e-01 8.48063280e-01 -3.84603046e-01 7.95365175e-04
1.65455750e-03 -4.65446660e-01 8.45743701e-01 -4.01838413e-01 9.46843601e-04
1.71488272e-03 -4.49587199e-01 8.41887045e-01 -4.10944952e-01 1.07365914e-03
1.77693985e-03 -4.50194966e-01 8.39041256e-01 -4.07799605e-01 1.27780084e-03
1.84075485e-03 -4.77982666e-01 8.39604544e-01 -3.83924545e-01 1.41419458e-03
1.90635252e-03 -5.24315681e-01 8.43978011e-01 -3.40666317e-01 1.27011943e-03
1.97375621e-03 -5.64846909e-01 8.48886572e-01 -3.01409953e-01 1.03601483e-03
2.04298746e-03 -5.81436789e-01 8.50572691e-01 -2.87272491e-01 1.00527260e-03
2.11406656e-03 -5.77784082e-01 8.50103347e-01 -2.92719576e-01 1.06320205e-03
2.18701223e-03 -5.72302316e-01 8.50062501e-01 -2.94353719e-01 9.62218667e-04
2.26184004e-03 -5.73967577e-01 8.50910043e-01 -2.90633695e-01 7.41211213e-04
2.33856374e-03 -5.72306481e-01 8.51974184e-01 -2.96539467e-01 4.85681277e-04
2.41719695e-03 -5.58475572e-01 8.52080689e-01 -3.11429240e-01 1.55647999e-04
2.49774830e-03 -5.42365525e-01 8.50565910e-01 -3.20203118e-01 -6.89201012e-05
2.58022078e-03 -5.39532301e-01 8.49539053e-01 -3.18410362e-01 1.59764185e-04
2.66462239e-03 -5.54452411e-01 8.52300377e-01 -3.10945155e-01 7.19569301e-04
2.75096040e-03 -5.79324538e-01 8.58409847e-01 -2.94711667e-01 1.00694098e-03
2.83922115e-03 -5.98722779e-01 8.62804028e-01 -2.71824158e-01 7.86165661e-04
2.92939176e-03 -6.00029770e-01 8.64538796e-01 -2.66434592e-01 4.59607626e-04
3.02149320e-03 -5.86477677e-01 8.65377210e-01 -2.85457489e-01 3.14879068e-04
3.11552266e-03 -5.73442108e-01 8.64767663e-01 -3.02139230e-01 1.69500681e-04
3.21139972e-03 -5.70976593e-01 8.62525050e-01 -2.98348229e-01 -4.98467573e-05
3.30909721e-03 -5.75730360e-01 8.60604131e-01 -2.89476664e-01 -7.48635091e-05
3.40874355e-03 -5.78522245e-01 8.62073199e-01 -2.93798573e-01 1.40836525e-04
3.51033095e-03 -5.75967560e-01 8.65523358e-01 -3.00021591e-01 2.80598943e-04
3.61332990e-03 -5.74038222e-01 8.68559201e-01 -3.00291878e-01 2.04245982e-04
3.71688804e-03 -5.79790171e-01 8.72720280e-01 -3.01497085e-01 4.52705755e-05
3.82046687e-03 -5.90853120e-01 8.76039270e-01 -2.93884995e-01 -9.80194144e-05
3.92406237e-03 -5.98972714e-01 8.77428629e-01 -2.80057487e-01 -1.83405571e-04
4.02782572e-03 -6.01492450e-01 8.78504281e-01 -2.76769572e-01 -1.73801394e-04
4.13175392e-03 -5.96076024e-01 8.77016840e-01 -2.86022167e-01 -7.28638044e-05
4.23578002e-03 -5.79655550e-01 8.73084679e-01 -3.01130345e-01 -1.86349306e-05
4.33990924e-03 -5.62149669e-01 8.69401287e-01 -3.10265172e-01 -1.52857004e-04
4.44417050e-03 -5.62341313e-01 8.68079398e-01 -3.03965491e-01 -3.04906943e-04
4.54855620e-03 -5.85997376e-01 8.69989118e-01 -2.83701296e-01 -2.60059388e-04
4.65305324e-03 -6.17452378e-01 8.71327801e-01 -2.57350645e-01 -1.35169185e-04
4.75766639e-03 -6.35867422e-01 8.71177125e-01 -2.35775904e-01 -1.12499494e-04
4.86239909e-03 -6.30153182e-01 8.72675928e-01 -2.38536561e-01 -9.74695945e-05
4.96724692e-03 -6.01759590e-01 8.75813488e-01 -2.76025858e-01 4.09843941e-05
5.07220820e-03 -5.66061369e-01 8.77198121e-01 -3.17823775e-01 1.77938593e-04
5.17728398e-03 -5.48714208e-01 8.76711574e-01 -3.25927154e-01 2.22434457e-04
5.28247322e-03 -5.67241235e-01 8.76371275e-01 -3.07314379e-01 2.75926041e-04
5.38777436e-03 -6.10773091e-01 8.74589207e-01 -2.69698367e-01 2.96408782e-04
5.49318700e-03 -6.45481014e-01 8.70908405e-01 -2.28045800e-01 1.44055177e-04
5.59871053e-03 -6.46866826e-01 8.68325778e-01 -2.20961668e-01 -6.22950693e-05
5.70434391e-03 -6.24062458e-01 8.66111712e-01 -2.44184173e-01 -1.16840085e-04
5.81008636e-03 -6.07044580e-01 8.62703739e-01 -2.60290953e-01 -6.70785509e-05
5.91593718e-03 -6.13710038e-01 8.59964340e-01 -2.50375994e-01 -8.88629791e-05
6.02189551e-03 -6.37632167e-01 8.59284174e-01 -2.24585840e-01 -2.18854412e-04
6.12796052e-03 -6.60594564e-01 8.58976704e-01 -2.05006886e-01 -3.70194579e-04
6.23413142e-03 -6.68911546e-01 8.57769060e-01 -1.94870109e-01 -4.43535895e-04
6.34040739e-03 -6.64959709e-01 8.55176902e-01 -1.93336704e-01 -3.66336330e-04
6.44678763e-03 -6.63103238e-01 8.51821261e-01 -1.99243060e-01 -2.28710480e-04
6.55327132e-03 -6.70817846e-01 8.49152091e-01 -1.91196956e-01 -2.30734953e-04
6.65985765e-03 -6.81854600e-01 8.50971961e-01 -1.74591827e-01 -2.77508265e-04
6.76654580e-03 -6.88112251e-01 8.57176676e-01 -1.75942033e-01 -4.14512790e-05
6.87333495e-03 -6.89064554e-01 8.62506581e-01 -1.89459826e-01 4.13194639e-04
6.98022429e-03 -6.90757111e-01 8.65084169e-01 -1.90468323e-01 5.95710086e-04
7.08721297e-03 -7.02575508e-01 8.66609416e-01 -1.76186091e-01 2.48164391e-04
7.19430017e-03 -7.32396417e-01 8.67575568e-01 -1.44966598e-01 -3.44164947e-04
7.30148506e-03 -7.74778476e-01 8.68443327e-01 -1.00275598e-01 -6.80271080e-04
7.40876680e-03 -8.07315997e-01 8.67273782e-01 -7.30728268e-02 -5.44530021e-04
7.51614455e-03 -8.13540722e-01 8.65142081e-01 -6.88515118e-02 -1.54027857e-04
7.62361748e-03 -8.01992724e-01 8.65591373e-01 -7.78661668e-02 1.80974264e-04
7.73118475e-03 -7.89514832e-01 8.63957779e-01 -9.67885990e-02 2.96419580e-04
7.83884553e-03 -7.78552819e-01 8.59078098e-01 -1.05244902e-01 1.83410063e-04
7.94659896e-03 -7.59626922e-01 8.58979153e-01 -1.16553138e-01 7.73959848e-05
8.05444421e-03 -7.27179956e-01 8.64692178e-01 -1.60360415e-01 1.97012178e-04
8.16238041e-03 -6.90709213e-01 8.68250609e-01 -2.09834551e-01 3.30774229e-04
8.27040673e-03 -6.72699211e-01 8.67152537e-01 -2.18723295e-01 2.22543787e-04
8.37852230e-03 -6.90362661e-01 8.62900468e-01 -1.87259337e-01 9.27796734e-05
8.48672626e-03 -7.36001096e-01 8.56900301e-01 -1.42658394e-01 1.82724559e-04
8.59501776e-03 -7.81870097e-01 8.54255315e-01 -9.78641767e-02 2.56325497e-04
8.70339592e-03 -8.06842044e-01 8.57555684e-01 -6.80283360e-02 5.37664852e-05
8.81185989e-03 -8.10079324e-01 8.61644089e-01 -6.65335322e-02 -2.93102243e-04
8.92040879e-03 -7.98508400e-01 8.63176988e-01 -8.43260885e-02 -5.87246311e-04
9.02904175e-03 -7.75221839e-01 8.64433769e-01 -1.08123356e-01 -7.82880622e-04
9.13775790e-03 -7.44697789e-01 8.65046690e-01 -1.33050576e-01 -7.67937497e-04
9.24655636e-03 -7.17432787e-01 8.63694540e-01 -1.61544995e-01 -4.29197752e-04
9.35543626e-03 -7.04248319e-01 8.63148150e-01 -1.83632807e-01 2.42372476e-05
9.46439670e-03 -7.11191525e-01 8.63869465e-01 -1.76407974e-01 2.54798149e-04
9.57343682e-03 -7.39708650e-01 8.63182573e-01 -1.41414419e-01 2.66199696e-04
9.68255571e-03 -7.83286748e-01 8.63756417e-01 -1.04855418e-01 2.45626727e-04
9.79175248e-03 -8.21555659e-01 8.67199644e-01 -7.70449542e-02 1.56772028e-04
9.90102625e-03 -8.31292205e-01 8.68372373e-01 -6.28587068e-02 -6.06253545e-05
1.00103761e-02 -8.13058100e-01 8.64066048e-01 -7.46187209e-02 -2.21429765e-04
1.01198012e-02 -7.94593997e-01 8.56503859e-01 -8.87002094e-02 -1.78805160e-04
1.02293006e-02 -7.99383899e-01 8.51348628e-01 -7.87052089e-02 -6.48171647e-05
1.03388733e-02 -8.23968750e-01 8.50948312e-01 -5.59963276e-02 -9.96733662e-05
1.04485186e-02 -8.50609944e-01 8.53177012e-01 -2.93249202e-02 -2.89902433e-04
1.05582354e-02 -8.71153339e-01 8.54943090e-01 -2.59844506e-04 -3.43879224e-04
1.06680230e-02 -8.90281886e-01 8.55944316e-01 1.30612012e-02 -8.45511559e-05
1.07778802e-02 -9.09433026e-01 8.57757388e-01 1.88401305e-02 1.46082121e-04
1.08878064e-02 -9.17520657e-01 8.58990836e-01 3.25827369e-02 3.32613555e-06
1.09978004e-02 -9.03025491e-01 8.56441217e-01 3.00100257e-02 -2.07139299e-04
1.11078615e-02 -8.74880765e-01 8.52499108e-01 -1.48541300e-03 -2.86433659e-05
1.12179886e-02 -8.57874289e-01 8.50591973e-01 -2.45164943e-02 3.78249112e-04
1.13281809e-02 -8.59243262e-01 8.51206191e-01 -2.03637012e-02 5.24752946e-04
1.14384375e-02 -8.61607232e-01 8.53447035e-01 -1.42808284e-02 2.82802541e-04
1.15487574e-02 -8.55528915e-01 8.54742593e-01 -2.18279221e-02 -8.87894904e-05
1.16591396e-02 -8.49041426e-01 8.54878579e-01 -2.70799628e-02 -2.92442007e-04
1.17695833e-02 -8.40851414e-01 8.55015427e-01 -3.09548253e-02 -1.67798076e-04
1.18800874e-02 -8.19054595e-01 8.57028951e-01 -5.95061115e-02 1.70663609e-04
1.19906512e-02 -7.93426807e-01 8.60188446e-01 -9.46536123e-02 3.32417647e-04
1.21012736e-02 -7.93018690e-01 8.60018873e-01 -9.01832150e-02 1.12936025e-04
1.22119536e-02 -8.23458624e-01 8.56389555e-01 -4.98523707e-02 -1.83488774e-04
1.23226905e-02 -8.58955900e-01 8.55644398e-01 -1.93108342e-02 -2.28803725e-04
1.24334831e-02 -8.80738038e-01 8.58689016e-01 -6.40821687e-03 -1.69375464e-04
1.25443305e-02 -8.93266392e-01 8.60039266e-01 1.67932672e-02 -2.31612487e-04
1.26552319e-02 -8.97512803e-01 8.58715800e-01 3.21413631e-02 -2.57036094e-04
1.27661862e-02 -8.78281519e-01 8.57217427e-01 1.09355423e-02 -6.11738397e-05
1.28771926e-02 -8.30435806e-01 8.56907036e-01 -3.20039744e-02 2.20225581e-04
1.29882499e-02 -7.76090949e-01 8.56290190e-01 -7.88161845e-02 3.95016934e-04
1.30993574e-02 -7.44019903e-01 8.53980721e-01 -1.08166208e-01 3.85931159e-04
1.32105139e-02 -7.44899375e-01 8.50872907e-01 -1.00505991e-01 1.55156495e-04
1.33217187e-02 -7.70928815e-01 8.48800214e-01 -6.75410782e-02 -2.29266340e-04
1.34329706e-02 -8.05292963e-01 8.48098529e-01 -2.70617697e-02 -5.24897221e-04
1.35442688e-02 -8.29874989e-01 8.47940611e-01 3.64872722e-03 -4.69117131e-04
1.36556123e-02 -8.37131350e-01 8.48905384e-01 8.34011081e-03 -8.58572246e-05
1.37670001e-02 -8.33886169e-01 8.51859668e-01 -5.45102561e-03 2.19090057e-04
1.38784312e-02 -8.28983632e-01 8.52585799e-01 -9.96348488e-03 1.17204189e-04
1.39899047e-02 -8.23887015e-01 8.48752358e-01 -5.74557520e-04 -1.27492956e-04
1.41014196e-02 -8.15071194e-01 8.44506714e-01 -4.06407333e-03 1.74946085e-06
1.42129750e-02 -8.01584620e-01 8.42920841e-01 -2.92567830e-02 4.46851174e-04
1.43245697e-02 -7.91196797e-01 8.43836519e-01 -4.02281099e-02 6.59664388e-04
1.44362030e-02 -7.95786249e-01 8.44265709e-01 -2.48626527e-02 4.81657159e-04
1.45478738e-02 -8.18663460e-01 8.42238813e-01 -4.05107176e-03 2.38785866e-04
1.46595810e-02 -8.49218484e-01 8.39069905e-01 2.39704418e-02 7.75111920e-05
1.47713239e-02 -8.70304753e-01 8.35664762e-01 5.16043912e-02 -1.28007271e-04
1.48831013e-02 -8.73113471e-01 8.35556311e-01 5.91362017e-02 -3.55379337e-04
1.49949122e-02 -8.65420787e-01 8.37967341e-01 5.42502380e-02 -3.64884852e-04
1.51067558e-02 -8.59316750e-01 8.39556237e-01 4.47094226e-02 -5.00072513e-05
1.52186310e-02 -8.57153175e-01 8.41368053e-01 3.39883141e-02 3.04977318e-04
1.53305368e-02 -8.57570765e-01 8.43840506e-01 3.13709132e-02 3.49494706e-04
1.54424722e-02 -8.63400024e-01 8.45779191e-01 3.75440265e-02 1.58018821e-04
1.55544363e-02 -8.71662144e-01 8.45838748e-01 4.53746573e-02 3.37786938e-05
1.56664281e-02 -8.77372082e-01 8.47699473e-01 4.77881805e-02 8.90579377e-05
1.57784465e-02 -8.88428342e-01 8.50663766e-01 5.09673243e-02 2.09176072e-04
1.58904907e-02 -9.10608661e-01 8.52022634e-01 6.50106997e-02 1.45791668e-04
1.60025595e-02 -9.33238126e-01 8.50642958e-01 8.80663311e-02 -1.95703121e-04
1.61146520e-02 -9.48457935e-01 8.48358704e-01 1.09941864e-01 -5.17636301e-04
1.62267672e-02 -9.66096027e-01 8.49292788e-01 1.24938650e-01 -4.50776280e-04
1.63389042e-02 -9.92381395e-01 8.51119392e-01 1.40005436e-01 -6.73920926e-05
1.64510618e-02 -1.01487094e+00 8.51398210e-01 1.59645856e-01 2.02302917e-04
1.65632392e-02 -1.02392832e+00 8.50398410e-01 1.72930775e-01 1.54336426e-04
1.66754353e-02 -1.02836274e+00 8.49663236e-01 1.75055271e-01 -2.44059633e-05
1.67876491e-02 -1.03709777e+00 8.49435485e-01 1.77725563e-01 -1.12577139e-04
1.68998796e-02 -1.04267037e+00 8.48189830e-01 1.82929200e-01 -5.11911710e-05
1.70121259e-02 -1.03408799e+00 8.46256643e-01 1.71138888e-01 1.07857111e-04
1.71243870e-02 -1.01557836e+00 8.43533585e-01 1.46346592e-01 2.30947312e-04
1.72366617e-02 -1.00235722e+00 8.39811428e-01 1.35745004e-01 2.32068553e-04
1.73489492e-02 -1.00039727e+00 8.37669301e-01 1.35492278e-01 1.95065041e-04
1.74612484e-02 -1.00009498e+00 8.37281248e-01 1.27704169e-01 1.89006575e-04
1.75735584e-02 -9.93252579e-01 8.36448871e-01 1.18374644e-01 1.43256961e-04
1.76858781e-02 -9.87334500e-01 8.36271364e-01 1.15401198e-01 5.93480913e-05
1.77982065e-02 -9.96031737e-01 8.35640202e-01 1.20904697e-01 4.83996610e-05
1.79105426e-02 -1.02053213e+00 8.33354792e-01 1.41079431e-01 1.02772332e-04
1.80228855e-02 -1.04759244e+00 8.32317722e-01 1.74400721e-01 1.43321678e-04
1.81352341e-02 -1.06675176e+00 8.34710767e-01 1.92252424e-01 1.57787432e-04
1.82475875e-02 -1.08317070e+00 8.38149292e-01 1.94880199e-01 4.23978735e-05
1.83599445e-02 -1.10616107e+00 8.40352425e-01 2.17048213e-01 -3.05347568e-04
1.84723043e-02 -1.12711416e+00 8.41517613e-01 2.48184116e-01 -5.97665139e-04
1.85846658e-02 -1.12555891e+00 8.41037413e-01 2.47131126e-01 -4.25658133e-04
1.86970279e-02 -1.10307101e+00 8.40260753e-01 2.16690003e-01 5.87195666e-05
1.88093898e-02 -1.08924168e+00 8.40353194e-01 2.08728619e-01 3.30862942e-04
1.89217504e-02 -1.10104198e+00 8.40257068e-01 2.33112506e-01 2.58938014e-04
1.90341088e-02 -1.12027257e+00 8.40185248e-01 2.49482544e-01 9.76507440e-05
1.91464638e-02 -1.12756638e+00 8.39525638e-01 2.53496971e-01 -2.92684953e-05
1.92588145e-02 -1.13124985e+00 8.36999385e-01 2.65574180e-01 -1.17129457e-04
1.93711599e-02 -1.14465398e+00 8.34575134e-01 2.82460728e-01 -9.31875974e-05
1.94834990e-02 -1.16102865e+00 8.33740092e-01 2.92865764e-01 5.72970827e-06
1.95958308e-02 -1.16690925e+00 8.32152560e-01 2.98337152e-01 1.68743168e-05
1.97081542e-02 -1.16264922e+00 8.29055502e-01 2.97652048e-01 -5.79218032e-05
1.98204684e-02 -1.15913959e+00 8.26057414e-01 2.92253580e-01 -6.79818749e-05
1.99327723e-02 -1.16297033e+00 8.24924604e-01 2.92662908e-01 -1.16187250e-06
2.00450648e-02 -1.17105295e+00 8.25704575e-01 3.00938758e-01 1.36661035e-05
2.01573450e-02 -1.17708669e+00 8.27522709e-01 3.07594523e-01 -5.84477042e-05
2.02696119e-02 -1.18035807e+00 8.29741577e-01 3.09678817e-01 -1.08292814e-04
2.03818645e-02 -1.18635345e+00 8.30800224e-01 3.11558667e-01 -6.61411876e-05
2.04941018e-02 -1.19738741e+00 8.28591462e-01 3.20953676e-01 -1.80644591e-05
2.06063228e-02 -1.20737767e+00 8.24771900e-01 3.36195868e-01 -5.82032882e-05
2.07185264e-02 -1.20969745e+00 8.23330026e-01 3.43829280e-01 -1.07359793e-04
